-1.000000000000000000e+00 1.917561999999999989e+00 2.377248400000000039e+00 2.329147900000000160e+00 2.358086999999999822e+00 2.286092899999999872e+00 2.601121299999999970e+00 2.174664299999999884e+00 8.464364199999999672e-01 9.062389999999999335e-02 -1.210654200000000069e-01 -4.002582700000000271e-01 -6.061001900000000386e-01 -7.117023099999999491e-01 -8.556074299999999466e-01 -9.057890699999999740e-01 -9.550860500000000197e-01 -1.104951999999999934e+00 -1.155164199999999974e+00 -1.129669800000000057e+00 -1.164098000000000077e+00 -1.264517799999999914e+00 -1.333458000000000032e+00 -1.306047500000000028e+00 -1.286953400000000025e+00 -1.297474299999999969e+00 -1.334972000000000047e+00 -1.438159299999999918e+00 -1.558354500000000087e+00 -1.674371700000000018e+00 -1.669049599999999911e+00 -1.577390000000000070e+00 -1.618545300000000076e+00 -1.608672300000000055e+00 -1.503548899999999966e+00 -1.406984699999999977e+00 -1.190400600000000031e+00 -1.037430000000000074e+00 -8.914369199999999660e-01 -5.878084900000000168e-01 -4.088824400000000137e-01 -2.279392299999999927e-01 1.107546199999999981e-01 3.577733799999999742e-01 5.079435700000000109e-01 5.836666900000000435e-01 5.314896399999999854e-01 5.110309100000000049e-01 6.150611700000000459e-01 6.940461700000000178e-01 6.868281099999999917e-01 6.727198500000000081e-01 6.218438899999999547e-01 5.135349000000000164e-01 4.667710700000000101e-01 4.948969500000000021e-01 4.994139699999999849e-01 4.416456400000000060e-01 3.612658799999999837e-01 4.068303600000000020e-01 4.934318799999999894e-01 4.336681099999999955e-01 4.278364599999999740e-01 4.722575900000000049e-01 4.323719899999999838e-01 5.085593099999999867e-01 6.259382399999999791e-01 6.305139199999999500e-01 6.849693500000000324e-01 8.272503599999999624e-01 9.006833100000000147e-01 7.758770499999999570e-01 5.747031299999999510e-01 5.426798400000000244e-01 6.539988300000000310e-01 7.231631099999999979e-01 6.474492400000000369e-01 5.052885000000000293e-01 3.812816299999999825e-01 1.762451700000000065e-01 1.581169099999999925e-03 -2.471055499999999863e-02 -7.620248599999999983e-02 -1.251922900000000116e-01 -1.593235199999999963e-01 -2.269643299999999919e-01 -1.953085300000000080e-01 -1.750579300000000005e-01 -2.415480399999999916e-01 -2.178433399999999964e-01 -1.756737300000000002e-01 -2.218349199999999910e-01 -2.225540500000000033e-01 -1.913942600000000105e-01 -1.076184399999999958e-01 1.167247200000000040e-01 9.814229500000000439e-02
-1.000000000000000000e+00 5.050427199999999450e-01 8.002479799999999699e-01 1.047676700000000016e+00 1.601445500000000077e+00 2.400689100000000131e+00 2.730446399999999940e+00 2.305241800000000119e+00 1.640492099999999898e+00 1.055738800000000088e+00 4.317429300000000247e-01 -1.020390800000000042e-01 -2.564731199999999989e-01 -1.427903100000000036e-01 -7.252205999999999930e-02 -1.020255000000000051e-01 -1.530814899999999867e-01 -1.986245100000000041e-01 -1.133771600000000046e-01 8.558391799999999494e-02 -4.714105799999999957e-02 -5.597215599999999514e-01 -7.105621800000000432e-01 -4.124445600000000156e-01 -4.964314799999999805e-01 -9.481830900000000062e-01 -1.012076299999999929e+00 -7.937913399999999564e-01 -8.223571800000000209e-01 -9.782269000000000103e-01 -1.028737100000000071e+00 -1.069346899999999989e+00 -1.152925999999999895e+00 -1.238828299999999993e+00 -1.301655500000000076e+00 -1.320342099999999963e+00 -1.392493299999999934e+00 -1.555848099999999956e+00 -1.620055800000000046e+00 -1.590803699999999932e+00 -1.665012699999999901e+00 -1.728335900000000036e+00 -1.656718300000000088e+00 -1.652154499999999970e+00 -1.693111500000000103e+00 -1.572537199999999968e+00 -1.481043399999999899e+00 -1.524748999999999910e+00 -1.350141500000000105e+00 -9.481830900000000062e-01 -7.561690899999999882e-01 -8.052293499999999549e-01 -7.537340799999999730e-01 -5.393781199999999609e-01 -3.282711300000000221e-01 -1.483301599999999887e-01 2.237769300000000058e-02 1.073177599999999982e-01 1.227292999999999995e-01 1.880395400000000050e-01 2.467652800000000035e-01 2.079135099999999958e-01 2.341713099999999936e-01 3.858269599999999966e-01 4.383247800000000249e-01 3.979629199999999978e-01 4.839227400000000179e-01 6.378665199999999924e-01 7.026993900000000348e-01 6.742551900000000042e-01 5.757676800000000039e-01 5.482260399999999700e-01 7.102199799999999730e-01 7.956878800000000140e-01 5.921206199999999864e-01 4.250940200000000169e-01 5.532464099999999663e-01 7.325674599999999481e-01 7.879304999999999781e-01 8.906648000000000343e-01 1.061786499999999966e+00 1.055738800000000088e+00 8.727470600000000189e-01 7.791227800000000148e-01 7.868004899999999635e-01 7.016201800000000377e-01 6.041250200000000126e-01 6.938900000000000068e-01 8.499625200000000547e-01 8.568763400000000141e-01 8.157402099999999656e-01 8.683056399999999897e-01 8.610264499999999988e-01 7.596412799999999743e-01 8.028657799999999733e-01 8.496026599999999540e-01 5.101067099999999632e-01
-1.000000000000000000e+00 6.410247599999999712e-01 7.814486200000000382e-01 8.841660900000000156e-01 1.235362999999999989e+00 1.782253300000000040e+00 2.219029200000000035e+00 2.350801099999999977e+00 2.111025199999999824e+00 1.595795800000000098e+00 1.063145000000000007e+00 5.214278199999999863e-01 8.905684099999999770e-02 1.531264400000000026e-01 2.324356599999999884e-01 -1.149376899999999951e-01 -1.651973100000000139e-01 5.011464799999999602e-03 -1.478869999999999907e-01 -6.105320999999999665e-02 3.645349999999999979e-02 -4.441071200000000219e-01 -6.793092099999999967e-01 -5.299733599999999489e-01 -6.467437299999999611e-01 -7.079432799999999526e-01 -6.633238200000000084e-01 -8.606828899999999782e-01 -9.597856700000000352e-01 -9.276052399999999976e-01 -1.140874799999999967e+00 -1.364474799999999988e+00 -1.286232400000000053e+00 -1.193629000000000051e+00 -1.332616500000000093e+00 -1.469505899999999921e+00 -1.489589899999999911e+00 -1.600690200000000063e+00 -1.777332799999999935e+00 -1.810176000000000007e+00 -1.735597099999999893e+00 -1.704956899999999997e+00 -1.724591900000000066e+00 -1.707795699999999917e+00 -1.594449299999999958e+00 -1.396698400000000007e+00 -1.187054700000000018e+00 -9.916590499999999864e-01 -7.708646200000000004e-01 -5.576156799999999469e-01 -3.874625899999999956e-01 -1.684684999999999933e-01 1.158190000000000053e-01 3.144081799999999816e-01 3.764868499999999840e-01 4.204736399999999819e-01 4.975668799999999892e-01 5.742429000000000006e-01 6.478606900000000168e-01 6.616984399999999988e-01 6.051487300000000236e-01 6.295551700000000528e-01 7.117260399999999487e-01 6.740077100000000376e-01 6.155466400000000338e-01 6.777178400000000158e-01 7.207244900000000509e-01 6.626562999999999759e-01 6.158657499999999896e-01 6.617521699999999729e-01 7.109475100000000047e-01 6.147269899999999732e-01 5.231166299999999714e-01 5.887229699999999566e-01 5.911069100000000409e-01 5.855090899999999543e-01 6.948123600000000177e-01 5.469097400000000331e-01 3.645842599999999933e-01 6.602078500000000405e-01 8.684830799999999629e-01 6.410247599999999712e-01 5.403232999999999508e-01 6.355810499999999807e-01 7.083335299999999890e-01 7.426267199999999624e-01 6.175198499999999813e-01 5.871576699999999649e-01 8.247907500000000169e-01 9.697120799999999763e-01 9.259981499999999643e-01 5.296564000000000272e-01 -1.374844299999999908e-01 -4.576849700000000243e-01 -1.061242400000000030e+00 -2.023360600000000176e+00 -1.376014099999999907e+00
-1.000000000000000000e+00 6.607783400000000196e-01 7.870390999999999915e-01 1.201062300000000027e+00 2.206085199999999968e+00 2.269455900000000081e+00 1.455177500000000013e+00 7.773549400000000498e-01 6.346128700000000511e-02 -3.434192200000000250e-01 -3.043016100000000002e-01 -1.726740599999999903e-01 -2.202686699999999997e-01 -4.044474599999999809e-01 -3.088849000000000178e-01 -3.348763699999999788e-01 -2.511789899999999909e-01 -6.763309899999999653e-01 -1.324884600000000079e+00 -9.052077099999999987e-01 -1.081758400000000009e+00 -1.487007799999999991e+00 -1.291693200000000097e+00 -1.227501100000000012e+00 -1.249745099999999942e+00 -1.713808100000000056e+00 -1.921966400000000075e+00 -1.775437200000000049e+00 -1.953273500000000107e+00 -2.018964299999999934e+00 -1.956618900000000050e+00 -1.940642699999999943e+00 -1.862255999999999911e+00 -2.049495799999999868e+00 -2.049793399999999988e+00 -1.634392499999999915e+00 -1.705799300000000018e+00 -1.632846100000000078e+00 -9.336131399999999525e-01 -9.697232500000000366e-01 -9.202777300000000160e-01 -2.170740100000000117e-01 -2.315477599999999914e-01 -1.314070300000000080e-01 -7.862690899999999483e-02 1.048573000000000066e-05 6.216617399999999627e-01 4.014425099999999746e-01 2.933312599999999826e-01 7.145430600000000076e-01 5.447936100000000392e-01 4.209299400000000024e-01 7.431497599999999926e-01 6.804634600000000200e-01 3.841917000000000249e-01 6.254182600000000036e-01 6.393440799999999813e-01 4.979574500000000237e-01 6.853553900000000088e-01 4.880316699999999730e-01 5.061495799999999878e-01 8.149371600000000493e-01 8.407966100000000553e-01 8.435448899999999917e-01 6.621688199999999913e-01 6.045725299999999969e-01 9.259466499999999822e-01 1.076137099999999958e+00 9.201194700000000504e-01 8.430590799999999607e-01 9.381392699999999696e-01 9.376935100000000078e-01 6.971849399999999752e-01 6.562983500000000303e-01 6.777539900000000284e-01 5.833064300000000424e-01 8.001788300000000076e-01 7.275540999999999814e-01 4.490274499999999946e-01 6.222983899999999791e-01 5.782882900000000381e-01 3.778465300000000138e-01 6.021454499999999710e-01 5.999504399999999738e-01 4.384868599999999783e-01 3.642296500000000159e-01 2.617178000000000004e-01 4.745436900000000180e-01 5.513136800000000282e-01 5.797502599999999617e-01 5.621343300000000154e-01 2.610675900000000160e-01 2.294201700000000066e-01 2.226940599999999992e-01 1.881116999999999928e-01 3.794118599999999897e-01 3.227257299999999884e-01
-1.000000000000000000e+00 6.927221099999999465e-01 7.481153400000000175e-01 7.895436999999999594e-01 1.349909900000000107e+00 2.005123100000000047e+00 2.296517000000000142e+00 2.392525700000000199e+00 2.384304799999999780e+00 2.056603799999999982e+00 1.511349999999999971e+00 9.959647700000000548e-01 4.519708700000000245e-01 1.115224900000000019e-01 2.888637600000000250e-01 3.881908600000000265e-01 2.325981400000000018e-02 -1.167409499999999961e-01 6.352042300000000641e-02 7.766669200000000418e-03 -6.139179499999999901e-02 -1.139360900000000072e-02 -2.632695400000000241e-01 -5.553681299999999599e-01 -5.067324899999999799e-01 -4.793912399999999963e-01 -5.943862600000000551e-01 -6.012818899999999855e-01 -6.516776399999999470e-01 -8.855077000000000087e-01 -1.033586899999999975e+00 -1.005777499999999991e+00 -1.062765200000000076e+00 -1.291270499999999988e+00 -1.464520899999999903e+00 -1.490695199999999998e+00 -1.582205599999999990e+00 -1.818921699999999975e+00 -1.971561399999999908e+00 -1.964045299999999994e+00 -1.974307299999999987e+00 -1.981400499999999898e+00 -1.893847800000000081e+00 -1.865932200000000041e+00 -1.846461099999999966e+00 -1.606565400000000032e+00 -1.394108300000000078e+00 -1.412713600000000014e+00 -1.254684200000000027e+00 -8.148463200000000128e-01 -5.524232000000000031e-01 -5.331039699999999826e-01 -4.371176299999999793e-01 -2.120494800000000124e-01 -1.494418299999999977e-02 6.238232500000000236e-02 8.957868400000000564e-02 1.889179099999999945e-01 2.729228300000000051e-01 2.343125600000000031e-01 2.467625200000000130e-01 3.795469200000000098e-01 4.017769999999999953e-01 3.050719299999999912e-01 3.304886100000000160e-01 4.292654599999999876e-01 3.891350399999999876e-01 3.468184899999999793e-01 5.171774599999999777e-01 6.777657000000000265e-01 5.872675699999999610e-01 4.658124900000000235e-01 5.081477300000000197e-01 5.615991299999999464e-01 5.461852099999999766e-01 5.119147699999999634e-01 4.008363699999999974e-01 2.593723199999999895e-01 3.162349999999999883e-01 5.597379900000000186e-01 7.071885199999999871e-01 7.179011699999999774e-01 7.476663399999999848e-01 6.791347100000000303e-01 4.517413299999999965e-01 3.779197100000000198e-01 4.697905399999999787e-01 4.261965799999999915e-01 3.781398400000000048e-01 5.047644000000000020e-01 5.807460800000000534e-01 5.437014199999999908e-01 5.201422799999999569e-01 5.063663499999999651e-01 5.609093600000000235e-01 5.882136900000000113e-01 2.996672200000000119e-01
-1.000000000000000000e+00 1.765577799999999975e+00 2.736506400000000117e+00 3.122020800000000040e+00 1.974116399999999993e+00 -2.011408299999999927e-01 -5.729475400000000329e-01 -8.171734000000000497e-01 -1.382996399999999904e+00 -1.279595899999999897e+00 -1.461450600000000044e+00 -1.628877700000000095e+00 -1.743780399999999897e+00 -2.080792399999999986e+00 -2.239596500000000212e+00 -2.421074500000000018e+00 -2.535279300000000013e+00 -2.213207399999999936e+00 -2.321098699999999848e+00 -1.522316599999999909e+00 -6.103062099999999601e-01 -5.331881200000000431e-01 2.870894500000000238e-01 5.561303600000000458e-01 8.260640099999999597e-01 9.092688500000000174e-01 9.050403599999999882e-01 1.012416200000000099e+00 7.550717999999999597e-01 8.264220599999999584e-01 7.858431099999999558e-01 6.974741300000000255e-01 7.014016600000000379e-01 5.817746799999999885e-01 5.189764500000000336e-01 4.053626000000000174e-01 4.491835599999999817e-01 3.794822099999999865e-01 2.616296200000000072e-01 3.896317999999999726e-01 2.422005100000000077e-01 2.858144100000000187e-01 1.397114799999999990e-01 1.170273299999999989e-01 1.016103899999999949e-01 -1.643392499999999853e-02 1.190826999999999997e-01 -3.205674399999999813e-02 -2.544695199999999838e-02 -4.090440400000000011e-03 1.285782899999999944e-03 5.653917099999999918e-02 -9.480144599999999755e-02 -9.507072799999999324e-02 7.846493399999999660e-03 -8.550144499999999537e-02 3.160006500000000097e-03 -9.504860499999999435e-02 6.034288699999999783e-02 -9.838466799999999457e-02 1.544928299999999942e-02 2.854105700000000162e-02 8.774921800000000383e-02 1.033868800000000004e-01 5.140576899999999699e-02 3.062428900000000159e-03 8.581897500000000567e-02 -3.270695299999999694e-02 6.076460300000000210e-03 -1.728894900000000137e-02 -9.179283900000000107e-02 -8.587206699999999637e-02 -8.055528100000000635e-02 -1.708924200000000101e-02 -1.306927599999999912e-01 -6.246929100000000318e-02 3.140081799999999701e-02 -1.694236000000000075e-01 -3.047715499999999883e-02 2.671830800000000172e-01 -2.723642000000000077e-02 1.649645799999999995e-01 -1.618944300000000128e-02 -4.525331300000000057e-01 -3.241037299999999788e-01 -3.354772000000000309e-02 -2.513388300000000131e-01 -3.669366900000000098e-01 -2.798062900000000131e-01 -1.965620999999999896e-01 -3.498878100000000213e-01 -5.086156599999999695e-02 -1.020995900000000040e-01 1.353975799999999952e+00 2.883938000000000113e+00 2.025592599999999965e+00 1.914784900000000012e-01
-1.000000000000000000e+00 7.314823400000000087e-01 8.358879999999999644e-01 1.008020099999999974e+00 1.662326900000000052e+00 2.361178300000000174e+00 2.511437499999999989e+00 2.165624100000000052e+00 1.769308300000000056e+00 1.441986599999999896e+00 8.547683600000000048e-01 1.292159499999999961e-01 -2.322623399999999838e-02 3.600253199999999820e-01 4.379845299999999830e-01 9.351870299999999470e-02 -5.047554900000000150e-02 1.532734699999999950e-01 3.174581599999999892e-01 1.736480300000000088e-01 -1.774625599999999914e-01 -4.333030700000000124e-01 -5.145546399999999521e-01 -5.601713200000000281e-01 -5.667524099999999843e-01 -5.579685100000000286e-01 -6.527781299999999565e-01 -7.412632999999999583e-01 -7.206631100000000512e-01 -7.814844300000000077e-01 -9.676933500000000077e-01 -1.032292299999999940e+00 -1.008899200000000107e+00 -1.206914499999999890e+00 -1.485119499999999926e+00 -1.527454199999999984e+00 -1.635643900000000039e+00 -1.980452099999999938e+00 -2.048919099999999993e+00 -1.864291700000000107e+00 -1.955163399999999996e+00 -2.074155800000000216e+00 -1.867778600000000067e+00 -1.725171599999999916e+00 -1.811655800000000038e+00 -1.755601399999999979e+00 -1.494024299999999972e+00 -1.267846599999999935e+00 -1.068005599999999999e+00 -8.341242500000000115e-01 -7.061212000000000044e-01 -6.010064499999999699e-01 -3.737051399999999912e-01 -2.645116699999999765e-01 -1.990001100000000078e-01 1.258998899999999865e-01 2.644001100000000215e-01 3.477844799999999653e-02 1.206123000000000056e-01 4.380265799999999987e-01 3.890070700000000103e-01 2.917787199999999914e-01 4.395725500000000063e-01 4.549112100000000103e-01 3.472540800000000205e-01 4.322667099999999984e-01 5.522445400000000060e-01 4.869400700000000026e-01 4.188328900000000132e-01 4.674748499999999973e-01 4.772562200000000088e-01 4.778776299999999977e-01 5.819978300000000493e-01 5.948647599999999924e-01 4.807454800000000028e-01 4.962744700000000231e-01 5.832244500000000054e-01 5.795885499999999801e-01 5.688953300000000324e-01 5.547700700000000040e-01 5.569533100000000347e-01 6.724383999999999917e-01 7.721244000000000440e-01 8.295691600000000276e-01 9.550223199999999801e-01 9.211846999999999674e-01 6.496951699999999885e-01 5.257745600000000019e-01 5.971370299999999576e-01 5.686149499999999524e-01 5.173314500000000260e-01 5.970214499999999536e-01 5.943101299999999920e-01 4.595986599999999922e-01 5.051877399999999962e-01 6.565826200000000057e-01 4.904695000000000027e-01
-1.000000000000000000e+00 1.398340799999999939e+00 3.154081699999999877e+00 3.437720800000000132e+00 2.305670500000000178e+00 1.894286299999999867e-01 1.147842000000000029e+00 1.003647299999999909e+00 5.406100999999999823e-01 9.441429300000000469e-01 -3.403173199999999787e-01 -7.498631599999999731e-01 -1.024617799999999912e+00 -1.051652400000000043e+00 -1.179857600000000062e+00 -1.575557600000000003e+00 -1.323884099999999897e+00 -1.473445799999999917e+00 -1.549087199999999998e+00 -1.538192299999999957e+00 -2.134294300000000089e+00 -1.803042599999999940e+00 -1.819541400000000086e+00 -2.124995900000000049e+00 -1.875540900000000066e+00 -1.940049300000000088e+00 -1.870680399999999910e+00 -1.745752299999999924e+00 -1.434081699999999904e+00 -1.020529999999999937e+00 -6.654778300000000479e-01 -1.956385200000000102e-01 -7.635880899999999971e-02 1.996987699999999977e-01 7.594581900000000330e-01 6.041022900000000417e-01 9.819414300000000040e-01 8.542210599999999765e-01 7.641782000000000297e-01 7.812915299999999563e-01 7.385642700000000227e-01 8.246471600000000457e-01 5.889947599999999506e-01 9.540021800000000329e-01 5.838708599999999915e-01 7.609335999999999878e-01 5.968104600000000426e-01 6.661256599999999528e-01 6.801782299999999948e-01 3.679990000000000205e-01 7.761322800000000077e-01 4.940984700000000118e-01 5.506937299999999924e-01 3.004555600000000104e-01 4.819925999999999933e-01 4.194201900000000260e-01 2.343724899999999889e-01 2.405328100000000136e-01 1.378418899999999947e-01 3.959490800000000088e-01 1.986788999999999916e-01 1.138288499999999953e-01 2.049012000000000056e-01 4.150075400000000081e-01 4.982353400000000265e-02 1.099592000000000069e-01 2.040838399999999886e-01 2.033946199999999982e-01 1.112660500000000052e-01 1.061773700000000036e-02 1.470794699999999899e-01 1.887279299999999882e-01 3.431046399999999885e-02 -2.082551200000000088e-02 1.310885699999999876e-01 2.592404799999999954e-01 1.100005700000000058e-01 -1.517585899999999988e-01 6.465745299999999807e-01 5.408026400000000011e-01 5.462140699999999960e-01 3.765032500000000115e-01 2.169474999999999876e-01 7.658379799999999460e-02 -2.408956600000000114e-01 -2.083521399999999912e-01 -3.832946799999999987e-01 -2.272630900000000009e-01 -6.073609900000000172e-02 -6.444121400000000222e-01 -3.285148999999999986e-01 -1.655814899999999978e-01 -5.869375399999999798e-01 -2.585569699999999971e-01 -4.527981400000000156e-01 -3.107281399999999860e-01 -2.025121400000000071e-01
-1.000000000000000000e+00 6.405966600000000399e-01 1.707640100000000105e+00 3.871793999999999958e+00 3.709474999999999856e+00 1.635348500000000094e+00 -4.997075300000000109e-01 3.025511100000000120e-01 1.223548400000000091e+00 8.632564499999999530e-01 8.542981600000000286e-01 7.243661300000000525e-01 -4.153023299999999973e-01 -7.083354299999999881e-01 -5.516240000000000032e-01 -5.854272400000000154e-01 -1.758378199999999891e+00 -9.821589800000000148e-01 -1.203307200000000021e+00 -1.322378999999999971e+00 -9.699480099999999716e-01 -1.505511999999999961e+00 -1.500730700000000084e+00 -2.437671299999999874e+00 -1.944601000000000024e+00 -2.177312500000000206e+00 -2.165445599999999970e+00 -2.159856500000000068e+00 -1.921722699999999895e+00 -1.558961499999999889e+00 -1.274524699999999955e+00 -9.008519799999999966e-01 -4.738973000000000213e-01 -1.090884500000000035e-01 3.007354500000000014e-03 2.952259999999999884e-01 5.772889799999999516e-01 6.962780400000000425e-01 6.427056100000000383e-01 6.407018199999999775e-01 8.245908400000000471e-01 5.820158399999999510e-01 5.158103699999999625e-01 7.180057800000000379e-01 6.051398000000000055e-01 8.269344100000000086e-01 4.137219500000000050e-01 2.433797199999999938e-01 6.173658699999999833e-01 6.227020800000000467e-01 4.643677600000000183e-01 4.976999200000000179e-01 4.448597799999999824e-01 3.537224999999999953e-01 2.700294200000000200e-01 3.025975799999999771e-01 2.744000400000000117e-01 1.541430699999999931e-01 5.684891100000000197e-02 3.181419799999999909e-01 6.444371999999999601e-02 1.459297900000000037e-01 3.611208699999999827e-01 -1.442111600000000049e-01 2.220569900000000096e-01 -2.464080700000000068e-02 -1.268745599999999973e-02 4.049079199999999767e-02 4.574520499999999712e-02 -2.288281799999999921e-01 1.061943199999999983e-02 -1.902903099999999903e-01 -6.519870299999999674e-02 -5.792358100000000176e-02 -7.217517499999999420e-02 1.502559699999999991e-02 -5.344210199999999827e-02 4.747676000000000118e-01 5.424197899999999573e-01 7.857306800000000147e-01 7.739164400000000388e-01 4.542732099999999829e-01 -5.616224000000000216e-02 -9.367519700000000171e-02 -1.854018500000000069e-01 -1.975913400000000042e-01 -4.138076099999999924e-01 -1.270800300000000105e-01 -2.380581599999999909e-01 -3.625741299999999945e-01 -2.518029199999999995e-02 -8.957070500000000046e-02 5.252380799999999822e-02 -1.461614599999999931e-01 -2.182964500000000030e-01 3.529189600000000038e-01 2.931583899999999909e-01
-1.000000000000000000e+00 8.627806599999999770e-01 1.320929199999999915e+00 1.879690000000000083e+00 2.459732699999999994e+00 2.703976200000000052e+00 2.625560899999999975e+00 2.542306500000000025e+00 2.393231600000000014e+00 1.935977400000000070e+00 1.312180600000000030e+00 7.759285099999999602e-01 3.513985800000000159e-01 9.685468899999999381e-02 5.106025499999999884e-02 -4.917665499999999967e-02 -3.465515100000000071e-01 -5.108568599999999682e-01 -3.247978999999999727e-01 -8.765667100000000544e-02 -4.790790899999999852e-02 -7.925282999999999634e-02 -6.997098399999999996e-02 -1.106618600000000008e-01 -2.511872600000000233e-01 -4.296658500000000158e-01 -5.698779499999999665e-01 -5.946115899999999677e-01 -5.337790999999999508e-01 -5.336604900000000429e-01 -6.370481799999999639e-01 -7.184076400000000140e-01 -7.448685400000000234e-01 -8.490754600000000041e-01 -1.044525099999999984e+00 -1.171731400000000090e+00 -1.172466500000000078e+00 -1.168047300000000011e+00 -1.260101499999999985e+00 -1.400310600000000072e+00 -1.496811499999999961e+00 -1.530855199999999972e+00 -1.562493700000000096e+00 -1.627004399999999906e+00 -1.650596699999999917e+00 -1.561298899999999934e+00 -1.434331800000000046e+00 -1.388717299999999932e+00 -1.404106800000000099e+00 -1.381252600000000053e+00 -1.307811300000000010e+00 -1.216933400000000054e+00 -1.092738100000000045e+00 -9.306417299999999448e-01 -7.912685900000000494e-01 -6.981292199999999948e-01 -5.591580600000000123e-01 -3.377415799999999857e-01 -1.725219199999999953e-01 -1.698018500000000042e-01 -1.785653500000000116e-01 -7.497515300000000271e-03 2.301641500000000118e-01 3.017252699999999899e-01 2.351574999999999915e-01 2.366340100000000057e-01 3.323380599999999907e-01 3.888062800000000041e-01 3.798074699999999804e-01 3.987549899999999758e-01 5.023819099999999871e-01 6.217574300000000553e-01 6.372876499999999833e-01 5.447006800000000482e-01 4.948070999999999997e-01 5.417888699999999780e-01 5.236049299999999684e-01 3.974649000000000099e-01 3.712431299999999768e-01 4.989222400000000168e-01 5.866341499999999654e-01 5.973956000000000266e-01 6.300122599999999906e-01 5.811423199999999900e-01 3.709076800000000174e-01 2.367028700000000097e-01 3.241699100000000056e-01 4.173124100000000225e-01 3.944935800000000103e-01 4.179699299999999895e-01 5.170000799999999730e-01 5.195239299999999671e-01 4.492243599999999892e-01 5.066261300000000078e-01 6.640458399999999983e-01 6.531176899999999730e-01 3.912419999999999787e-01
-1.000000000000000000e+00 5.331173200000000056e-01 1.039519700000000046e+00 1.755769600000000041e+00 2.765947699999999898e+00 3.137921500000000030e+00 2.753190000000000026e+00 1.781773400000000063e+00 7.018431499999999712e-01 1.064609899999999998e+00 1.316297700000000015e+00 8.152110700000000376e-01 7.552710400000000046e-01 8.227325899999999859e-01 -3.817205500000000226e-04 -4.152233100000000121e-01 -6.897593100000000144e-01 -9.028233799999999531e-01 -1.067123999999999961e+00 -1.221474600000000077e+00 -1.209599400000000102e+00 -1.343990299999999971e+00 -1.431156400000000106e+00 -1.334053300000000108e+00 -1.412517199999999917e+00 -1.545713300000000068e+00 -1.714977299999999927e+00 -1.669868399999999919e+00 -1.652039000000000035e+00 -1.812132499999999924e+00 -1.833775699999999897e+00 -1.852707899999999963e+00 -1.775193500000000091e+00 -1.899801000000000073e+00 -1.775600199999999962e+00 -1.571926099999999993e+00 -1.326802999999999955e+00 -1.135855599999999965e+00 -9.816433300000000362e-01 -6.249131500000000283e-01 -4.469815999999999789e-01 -2.458416700000000121e-01 -3.555880499999999889e-02 1.715466999999999964e-01 2.489289000000000085e-01 2.552661800000000092e-01 2.506988600000000234e-01 2.886594599999999788e-01 3.931387599999999760e-01 3.056749599999999956e-01 3.490076500000000026e-01 2.731045699999999909e-01 2.076328699999999972e-01 1.087695000000000051e-01 1.543001999999999985e-01 3.380017799999999739e-01 1.356970799999999977e-01 1.897772600000000032e-01 4.038951800000000203e-01 3.033824399999999755e-01 5.163984600000000036e-01 3.483898000000000272e-01 2.777572700000000006e-01 6.457605600000000390e-01 2.779896600000000273e-01 5.154284000000000088e-01 4.878818100000000269e-01 4.212189599999999756e-01 4.838371000000000199e-01 4.292536699999999761e-01 3.930713200000000018e-01 3.154785399999999740e-01 4.129572699999999874e-01 3.596770899999999771e-01 5.265714000000000228e-01 6.113973200000000219e-01 5.267994799999999866e-01 3.523150800000000027e-01 5.854635099999999648e-01 3.357592600000000038e-01 3.574915200000000071e-01 1.429160700000000062e-01 1.972862400000000016e-01 2.232335099999999961e-01 6.038388199999999983e-02 9.132774600000000131e-02 1.028696300000000036e-01 7.991956399999999849e-02 7.656258700000000139e-02 5.867720500000000311e-02 5.511533799999999983e-02 2.417524899999999866e-01 6.993797399999999997e-02 2.325533100000000131e-01 8.287445200000000123e-02 2.674881900000000146e-01 1.449521800000000138e-01
-1.000000000000000000e+00 2.318207699999999871e+00 2.139772300000000183e+00 1.794242799999999916e+00 2.344508199999999931e+00 1.724400099999999991e+00 4.315011400000000052e-01 -4.649327600000000005e-01 -5.424143200000000054e-01 -8.306199199999999561e-01 -1.030462100000000047e+00 -1.008536600000000005e+00 -1.102180200000000054e+00 -1.218043699999999951e+00 -1.401442000000000077e+00 -1.413984200000000024e+00 -1.597216100000000027e+00 -1.595155799999999902e+00 -1.662080999999999920e+00 -1.752267699999999984e+00 -1.773031999999999941e+00 -1.893021099999999901e+00 -1.996399999999999952e+00 -2.015084400000000109e+00 -1.954397200000000057e+00 -1.991717799999999983e+00 -1.774352300000000104e+00 -1.685401699999999892e+00 -1.590772999999999993e+00 -1.245291099999999984e+00 -8.368891299999999811e-01 -5.008630699999999658e-01 -1.763978900000000016e-01 2.957397099999999890e-01 4.373475700000000188e-01 6.831088899999999686e-01 9.441203700000000421e-01 1.014930899999999969e+00 1.178716099999999933e+00 1.030768200000000023e+00 1.134015500000000065e+00 1.103420800000000090e+00 1.013881400000000044e+00 8.307762400000000547e-01 8.589016299999999715e-01 7.182876500000000553e-01 8.424654900000000390e-01 7.287442800000000220e-01 6.939908099999999580e-01 6.737000199999999550e-01 6.608787000000000411e-01 6.879848299999999917e-01 5.308613100000000307e-01 5.851414299999999624e-01 5.356693399999999938e-01 5.942271300000000478e-01 2.963670199999999810e-01 3.352820400000000034e-01 4.613322000000000256e-01 3.388082199999999933e-01 2.737121299999999979e-01 3.385836300000000243e-01 4.020733599999999908e-01 2.517468500000000220e-01 3.394213600000000053e-01 1.663657500000000067e-01 1.238862300000000000e-01 2.851203700000000119e-01 6.139439199999999902e-02 2.364905999999999953e-01 4.782214399999999976e-01 5.132423600000000086e-01 7.112769300000000294e-01 6.460411799999999927e-01 5.163906299999999616e-01 4.338422900000000193e-01 1.403197399999999984e-01 4.350066200000000244e-02 1.252549599999999985e-01 -4.281909200000000304e-02 -2.611927800000000133e-01 -3.898978799999999745e-02 5.606750300000000291e-03 -6.531322300000000358e-02 -1.032639399999999985e-01 -2.085858100000000104e-01 -1.071735899999999991e-01 -9.929198200000000085e-02 -2.399478800000000023e-01 -6.585043799999999725e-02 -9.029441300000000392e-02 -2.348998099999999867e-01 -3.272687700000000144e-02 -1.026684600000000031e-01 -6.453876499999999794e-02 2.850079799999999941e-01 4.709143000000000079e-01
-1.000000000000000000e+00 1.083288100000000087e+00 1.547029999999999905e+00 1.061647400000000019e+00 -5.740058000000000105e-01 -8.253689300000000006e-01 -1.213810700000000020e+00 -1.593986499999999973e+00 -1.710133700000000090e+00 -1.712567100000000009e+00 -1.952491600000000105e+00 -2.416677400000000198e+00 -2.330866900000000186e+00 -2.670337299999999914e+00 -2.839545699999999950e+00 -2.758825600000000211e+00 -2.815516800000000153e+00 -1.957036500000000068e+00 -1.527758500000000019e+00 -8.348745699999999825e-01 8.166405000000000192e-02 6.266482599999999570e-01 7.779998500000000483e-01 1.025472900000000021e+00 9.951392999999999489e-01 8.722281299999999904e-01 7.869960900000000370e-01 6.659819099999999548e-01 5.987854500000000524e-01 4.352779500000000246e-01 4.281378000000000128e-01 4.285390600000000272e-01 4.239656700000000167e-01 3.398671899999999857e-01 3.166074799999999967e-01 1.275088799999999911e-01 2.699139300000000241e-01 -6.514258700000000006e-03 2.040378999999999943e-01 -2.170255800000000027e-02 2.223123700000000091e-01 1.398547800000000119e-01 -1.515055299999999994e-01 1.792562799999999901e-01 -1.391080899999999967e-02 -5.234255200000000052e-02 -1.282569599999999928e-02 5.588730799999999665e-02 -8.870932600000000848e-03 2.099239900000000048e-01 6.422844499999999512e-02 1.062552100000000027e-01 6.623556399999999678e-02 1.083429199999999953e-01 5.596531600000000106e-02 4.467352499999999865e-02 9.989102499999999440e-02 1.604854899999999876e-02 7.086782199999999698e-02 7.813744699999999876e-02 1.306602000000000041e-01 2.510719900000000226e-01 1.726048400000000094e-01 2.742290000000000005e-01 2.745134900000000266e-01 1.370307699999999962e-01 1.448863499999999971e-01 3.276060699999999715e-02 1.210003800000000046e-01 2.274424899999999972e-01 2.041260199999999914e-01 3.976016299999999837e-01 2.483116700000000121e-01 2.510454699999999928e-01 2.624965100000000162e-01 8.368581399999999726e-02 1.917010299999999945e-01 4.300977000000000272e-01 6.129466500000000373e-01 6.816894500000000301e-01 2.484055599999999975e-01 3.363060800000000072e-01 3.541638800000000004e-02 2.599308599999999858e-02 1.213675099999999979e-01 2.728831800000000030e-01 1.349458400000000113e-01 1.418536800000000098e-01 2.108410500000000021e-01 2.021562699999999990e-01 1.976070400000000116e-01 4.457630399999999993e-01 1.296184100000000061e+00 2.762600599999999851e+00 2.747685099999999991e+00 9.268354399999999549e-01 1.501122000000000012e-01
-1.000000000000000000e+00 5.599340900000000509e-01 7.690264399999999778e-01 1.095860499999999904e+00 1.870735700000000001e+00 2.252540699999999951e+00 1.793884999999999952e+00 1.141777400000000053e+00 5.747885499999999537e-01 -1.284818199999999966e-01 -2.904433000000000153e-01 -1.178158700000000031e-01 -3.148414800000000069e-01 -2.332343100000000002e-01 -1.226984099999999939e-01 -1.627248099999999975e-01 -1.865601299999999907e-01 -5.888726300000000080e-01 -7.760661300000000207e-01 -7.586034000000000388e-01 -9.902309799999999829e-01 -1.035344700000000007e+00 -1.009675199999999995e+00 -1.230825700000000023e+00 -1.341712299999999969e+00 -1.386301299999999959e+00 -1.500929799999999981e+00 -1.607925400000000060e+00 -1.793231599999999926e+00 -1.751296299999999917e+00 -1.879712999999999967e+00 -2.084173299999999784e+00 -1.938077400000000061e+00 -2.114733100000000032e+00 -2.128439699999999934e+00 -1.987590699999999933e+00 -2.029048400000000196e+00 -1.759743499999999905e+00 -1.612289499999999931e+00 -1.457607300000000050e+00 -1.198466100000000090e+00 -1.027925999999999895e+00 -7.221651700000000229e-01 -5.257779399999999992e-01 -2.459596099999999952e-01 1.094870099999999957e-01 1.807862299999999922e-01 3.064122699999999866e-01 5.327096900000000135e-01 5.187684000000000184e-01 4.444042599999999954e-01 5.984143499999999838e-01 6.681543800000000477e-01 5.874780600000000241e-01 7.025009199999999732e-01 6.878968399999999539e-01 5.720113700000000190e-01 7.067466300000000423e-01 7.029933999999999905e-01 6.120643399999999845e-01 6.560167900000000163e-01 6.518164300000000022e-01 6.006372300000000219e-01 5.803093299999999566e-01 5.792346099999999831e-01 4.911715899999999912e-01 5.071414800000000334e-01 6.866731299999999649e-01 6.560401700000000336e-01 5.689002699999999857e-01 6.981502400000000330e-01 6.662887400000000460e-01 5.232971100000000098e-01 6.378112900000000307e-01 7.054522300000000135e-01 6.462949099999999447e-01 6.287751400000000102e-01 5.743443599999999982e-01 5.975092100000000128e-01 6.328962500000000491e-01 5.506632200000000088e-01 6.783617299999999961e-01 7.279879099999999603e-01 4.286150699999999869e-01 4.664118999999999904e-01 6.444959399999999894e-01 7.393047700000000555e-01 8.679406800000000199e-01 7.077366999999999964e-01 6.154268800000000095e-01 5.630538000000000487e-01 4.460560299999999923e-01 4.254774800000000190e-01 3.147817700000000163e-01 4.699898200000000026e-01 7.036417099999999758e-01 4.114437000000000233e-01
-1.000000000000000000e+00 7.067790000000000461e-01 6.858063199999999693e-01 6.516752900000000182e-01 1.282700600000000080e+00 1.982760499999999926e+00 1.908205399999999941e+00 1.577684899999999946e+00 1.637382700000000080e+00 1.500564999999999927e+00 7.489196099999999579e-01 3.279002599999999989e-02 -1.918469100000000094e-01 -1.500800100000000137e-01 -1.130313000000000012e-01 -2.379587999999999981e-01 -5.012517300000000064e-01 -5.988710099999999814e-01 -4.234876300000000038e-01 -3.607830399999999993e-01 -6.192905800000000349e-01 -8.150750799999999519e-01 -7.260016400000000036e-01 -6.349163199999999785e-01 -7.164817300000000388e-01 -9.086109300000000388e-01 -1.048464999999999980e+00 -1.022903300000000071e+00 -1.077173399999999948e+00 -1.260317600000000038e+00 -1.261178700000000097e+00 -1.287876400000000032e+00 -1.484286800000000017e+00 -1.381388199999999955e+00 -1.231688899999999975e+00 -1.561306599999999989e+00 -1.831288400000000038e+00 -1.751423100000000010e+00 -1.778492600000000090e+00 -1.815199599999999913e+00 -1.695235599999999954e+00 -1.700604400000000016e+00 -1.738302699999999978e+00 -1.610954400000000009e+00 -1.460502100000000025e+00 -1.340829400000000060e+00 -1.231688899999999975e+00 -1.078937000000000035e+00 -8.059575900000000015e-01 -6.417204199999999581e-01 -6.339871599999999940e-01 -3.943462300000000198e-01 -3.770505500000000121e-02 1.026738199999999981e-03 -6.811114100000000005e-02 6.062302800000000241e-02 2.236544599999999994e-01 3.045475200000000160e-01 3.275135399999999919e-01 3.012251599999999918e-01 3.213335900000000023e-01 3.977478799999999981e-01 4.543253099999999822e-01 5.120666900000000465e-01 5.241697100000000109e-01 4.491803300000000165e-01 4.379937600000000097e-01 5.382165700000000053e-01 5.936754899999999724e-01 5.504970200000000036e-01 4.960759699999999772e-01 4.884473200000000181e-01 5.524673599999999629e-01 6.786852599999999569e-01 7.233564000000000105e-01 6.615103199999999850e-01 7.348727400000000243e-01 8.662507499999999583e-01 7.297143600000000063e-01 5.944040499999999616e-01 8.389174200000000248e-01 1.087387600000000010e+00 1.001763299999999912e+00 9.626175999999999622e-01 1.073773099999999925e+00 8.612945600000000423e-01 6.231786200000000164e-01 9.568564600000000198e-01 1.128185100000000052e+00 7.677745099999999656e-01 9.042914100000000177e-01 1.310794400000000026e+00 1.123726800000000026e+00 1.090400800000000059e+00 1.310794400000000026e+00 8.070370999999999517e-01 1.419135199999999875e-01
-1.000000000000000000e+00 6.062982599999999778e-01 9.613261699999999799e-01 1.569418699999999944e+00 1.991870000000000029e+00 1.773754199999999948e+00 1.661884099999999975e+00 1.692323800000000045e+00 1.197356300000000040e+00 5.402384500000000367e-01 8.522721699999999401e-02 -2.238334800000000013e-01 -1.728173899999999874e-01 -9.197513799999999795e-02 -3.768352700000000000e-01 -5.830763900000000000e-01 -5.395014599999999882e-01 -4.926214800000000005e-01 -4.511612600000000084e-01 -5.433191800000000127e-01 -7.601984200000000413e-01 -8.039444399999999824e-01 -8.096940700000000435e-01 -9.925164499999999945e-01 -1.054988999999999955e+00 -8.989749599999999896e-01 -9.249825600000000092e-01 -1.159420899999999977e+00 -1.225208700000000039e+00 -1.211300499999999891e+00 -1.364297300000000046e+00 -1.487096100000000032e+00 -1.568564800000000092e+00 -1.777458399999999994e+00 -1.855121299999999973e+00 -1.752602900000000075e+00 -1.841904100000000044e+00 -2.017522299999999991e+00 -1.935726400000000069e+00 -1.769054099999999963e+00 -1.724536199999999964e+00 -1.608036800000000044e+00 -1.400276199999999971e+00 -1.373294100000000073e+00 -1.399771799999999899e+00 -1.110555399999999970e+00 -6.922464400000000184e-01 -5.278817900000000174e-01 -4.302623600000000104e-01 -1.608780900000000014e-01 -4.515961800000000033e-03 -6.203815499999999761e-02 1.914965999999999891e-02 2.412073799999999990e-01 3.067626500000000256e-01 2.631586000000000203e-01 3.075132099999999813e-01 4.529834899999999887e-01 5.487004300000000168e-01 4.808520299999999859e-01 4.530306299999999897e-01 5.817703800000000314e-01 6.023619300000000454e-01 5.446502800000000422e-01 6.380769800000000158e-01 7.040222699999999501e-01 6.545250099999999627e-01 6.335227700000000128e-01 5.844999300000000009e-01 5.875742000000000465e-01 7.536947400000000297e-01 8.437471699999999908e-01 8.256490899999999744e-01 8.400857200000000358e-01 8.277212600000000142e-01 9.111741399999999658e-01 1.029984000000000011e+00 8.714201299999999595e-01 7.395863000000000298e-01 8.531213800000000402e-01 8.640051100000000206e-01 8.863172000000000272e-01 9.988804300000000413e-01 9.176835500000000145e-01 9.365524200000000521e-01 1.054010200000000008e+00 7.595297899999999824e-01 4.728997699999999971e-01 5.872710500000000167e-01 5.993510699999999858e-01 4.981852600000000186e-01 5.839868700000000468e-01 6.112336900000000517e-01 5.573701599999999479e-01 6.611788299999999952e-01 6.750702400000000436e-01 3.362434899999999782e-01
-1.000000000000000000e+00 1.404424099999999953e+00 2.128917500000000018e+00 2.416291999999999884e+00 2.585833800000000071e+00 2.582096799999999970e+00 2.123973299999999842e+00 1.474307800000000057e+00 8.690399599999999447e-01 2.698148699999999844e-01 4.906606300000000004e-02 1.774469700000000094e-01 5.415428900000000129e-02 -4.020661100000000321e-02 1.427453999999999945e-01 6.740094800000000219e-02 -3.253975900000000143e-02 5.148677399999999904e-02 -3.006031399999999909e-01 -7.329511399999999455e-01 -6.339866800000000246e-01 -5.216917300000000202e-01 -6.317625300000000443e-01 -7.392656399999999461e-01 -9.018727300000000113e-01 -9.377259900000000092e-01 -7.735625499999999599e-01 -7.725235000000000296e-01 -9.543472699999999698e-01 -1.144287400000000066e+00 -1.348356000000000110e+00 -1.448503600000000002e+00 -1.425759999999999916e+00 -1.497711800000000038e+00 -1.665773900000000030e+00 -1.751772799999999908e+00 -1.733330800000000060e+00 -1.728630700000000076e+00 -1.799779199999999912e+00 -1.827311399999999919e+00 -1.702821200000000035e+00 -1.572169099999999986e+00 -1.581222700000000092e+00 -1.573945699999999892e+00 -1.363938400000000106e+00 -1.100120999999999905e+00 -9.478520200000000173e-01 -7.929518100000000347e-01 -6.514655200000000201e-01 -5.828997799999999785e-01 -3.519348999999999950e-01 -7.395918599999999621e-02 -9.489643999999999857e-02 -8.538842100000000601e-02 1.783358899999999969e-01 2.562664299999999895e-01 1.384646900000000014e-01 1.846790700000000007e-01 3.131799900000000192e-01 3.436216500000000007e-01 3.158639999999999781e-01 3.582303900000000096e-01 5.198835499999999721e-01 5.588616400000000484e-01 3.596984100000000240e-01 3.053428599999999937e-01 5.596822000000000186e-01 6.808685399999999666e-01 4.914396899999999846e-01 4.347728900000000229e-01 6.298010299999999839e-01 6.771439099999999600e-01 5.931543500000000524e-01 6.296958099999999670e-01 6.776012200000000041e-01 7.229499400000000131e-01 8.057777400000000201e-01 7.688871099999999847e-01 7.047878899999999724e-01 6.704575499999999577e-01 5.327662199999999570e-01 5.467814100000000233e-01 7.593532299999999902e-01 6.983631799999999723e-01 4.579942000000000180e-01 4.752979999999999983e-01 5.434204900000000338e-01 3.900604400000000083e-01 3.050608599999999893e-01 4.356705100000000108e-01 4.705838999999999994e-01 3.639034999999999909e-01 3.706184299999999987e-01 4.741549899999999984e-01 5.788432300000000419e-01 6.426172999999999469e-01 4.978841600000000200e-01
-1.000000000000000000e+00 1.280680100000000099e+00 1.570831000000000088e+00 1.915334000000000092e+00 2.336203199999999924e+00 2.735076799999999864e+00 2.928448700000000127e+00 2.811202999999999896e+00 2.453286700000000042e+00 2.037879799999999797e+00 1.696459200000000056e+00 1.420494200000000040e+00 1.125355600000000011e+00 7.579687200000000402e-01 3.534532899999999755e-01 -2.452274300000000049e-03 -2.344902799999999954e-01 -3.130545800000000267e-01 -2.755522699999999880e-01 -2.096735000000000126e-01 -2.110497100000000015e-01 -3.106917499999999888e-01 -4.395832100000000020e-01 -4.943269800000000269e-01 -4.357997399999999910e-01 -3.392277899999999735e-01 -3.136335199999999990e-01 -3.831843600000000016e-01 -4.743316499999999936e-01 -4.963953600000000077e-01 -4.357002300000000217e-01 -3.501112699999999744e-01 -2.857076800000000194e-01 -2.593412999999999968e-01 -2.750230200000000069e-01 -3.375552099999999944e-01 -4.131378099999999942e-01 -4.167005699999999924e-01 -3.136052500000000021e-01 -2.023677299999999957e-01 -2.564967699999999851e-01 -5.083896500000000263e-01 -7.638298500000000324e-01 -7.870092800000000333e-01 -5.742634399999999584e-01 -3.935270799999999736e-01 -4.850345099999999743e-01 -8.002735500000000002e-01 -1.065166000000000057e+00 -1.091697700000000104e+00 -9.619057500000000038e-01 -8.765712799999999527e-01 -9.194986000000000548e-01 -1.009454099999999910e+00 -1.064688999999999997e+00 -1.114702899999999941e+00 -1.213913000000000020e+00 -1.327738300000000038e+00 -1.354267000000000110e+00 -1.268590499999999954e+00 -1.169734199999999946e+00 -1.163079600000000102e+00 -1.236562900000000020e+00 -1.273066800000000054e+00 -1.190780600000000078e+00 -1.022881300000000104e+00 -8.657702600000000137e-01 -7.811141000000000334e-01 -7.522046500000000302e-01 -7.291921700000000284e-01 -6.663469199999999537e-01 -5.354048599999999825e-01 -3.354677999999999827e-01 -1.021537700000000048e-01 8.780795600000000645e-02 1.738659499999999913e-01 1.645506800000000047e-01 1.311250499999999930e-01 1.491060100000000110e-01 2.319258200000000048e-01 3.533407499999999812e-01 4.903293100000000182e-01 6.296697599999999673e-01 7.392043799999999942e-01 7.548278499999999669e-01 6.617055200000000470e-01 5.437990299999999610e-01 5.306808299999999923e-01 6.692706099999999880e-01 8.522855400000000081e-01 9.292795499999999542e-01 8.529851200000000411e-01 7.197740299999999536e-01 6.562816900000000286e-01 6.835169700000000015e-01 7.292953699999999984e-01 7.261731900000000239e-01
1.000000000000000000e+00 2.181377200000000016e+00 3.221178399999999886e+00 2.193939700000000048e+00 1.568517600000000067e+00 2.322770000000000112e-01 4.637213399999999819e-01 1.224652599999999980e+00 7.600006900000000343e-01 6.877796000000000465e-01 1.812732099999999902e-01 -4.647085599999999928e-01 -6.866863500000000009e-01 -7.787169400000000241e-01 -9.224172699999999558e-01 -9.423492100000000482e-01 -9.448811299999999580e-01 -1.045765800000000079e+00 -1.114325500000000080e+00 -1.145106200000000074e+00 -1.297304299999999966e+00 -1.418953600000000037e+00 -1.447674899999999987e+00 -1.589423000000000030e+00 -1.782864500000000074e+00 -1.835216799999999981e+00 -1.871278299999999950e+00 -2.062247100000000000e+00 -2.195215600000000045e+00 -2.167042299999999866e+00 -2.229051800000000139e+00 -2.180488099999999818e+00 -1.704419799999999929e+00 -1.500753599999999910e+00 -1.151480899999999918e+00 -6.372818599999999778e-01 -3.291786300000000276e-01 1.506044199999999889e-01 3.810137900000000188e-01 6.269090699999999572e-01 8.368799799999999678e-01 7.521484000000000503e-01 9.674017400000000100e-01 9.248636900000000161e-01 7.431450299999999842e-01 7.413346400000000447e-01 7.417802399999999796e-01 6.819610999999999867e-01 6.103380900000000553e-01 6.039680299999999891e-01 6.914198499999999470e-01 6.641135900000000314e-01 6.064230900000000535e-01 7.318544099999999553e-01 6.714529200000000086e-01 5.546060299999999721e-01 6.064137299999999842e-01 5.675910199999999461e-01 5.610649800000000464e-01 4.715294300000000272e-01 4.860647699999999793e-01 4.040050600000000269e-01 3.148081099999999743e-01 3.305761199999999733e-01 2.830226900000000212e-01 2.875204699999999725e-01 2.532989099999999882e-01 2.550155700000000247e-01 2.601743100000000197e-01 1.872945599999999988e-01 1.528421000000000085e-01 2.261194699999999891e-01 2.169848400000000122e-01 1.350470400000000071e-01 2.280784600000000106e-01 2.154673099999999952e-01 2.891522899999999785e-01 6.789182099999999664e-01 7.500322299999999665e-01 5.237444999999999462e-01 4.046151299999999895e-01 3.540356499999999795e-01 1.930678000000000116e-01 -8.266888000000000014e-03 2.706144799999999837e-02 -2.390610699999999936e-02 -1.016816299999999951e-01 5.398417300000000335e-02 -1.263636899999999973e-02 3.174923000000000068e-03 6.046169400000000332e-02 6.910796600000000678e-02 8.335944200000000581e-02 1.058257299999999963e-02 -3.168607200000000262e-02 6.415782300000000271e-02 2.176991299999999907e-01
1.000000000000000000e+00 1.502066800000000091e-01 3.865864299999999809e-01 1.851446699999999890e+00 3.171162499999999884e+00 2.658651599999999782e+00 2.171200900000000100e+00 8.049863400000000224e-01 -1.029028099999999890e+00 -5.477132300000000509e-01 -8.830837800000000681e-02 -6.002337199999999706e-01 -5.272663800000000345e-01 -6.397772600000000143e-01 -4.646725700000000070e-01 -2.758056899999999922e-01 -1.012620499999999923e+00 -9.421726799999999846e-01 -6.527683699999999867e-01 -9.435130600000000145e-01 -1.148719999999999963e+00 -1.068907800000000075e+00 -1.197326899999999972e+00 -1.349000699999999942e+00 -1.112420100000000023e+00 -1.686394299999999902e+00 -1.700893999999999906e+00 -1.344490299999999916e+00 -2.025154999999999816e+00 -1.636470799999999892e+00 -1.866242500000000026e+00 -2.114679699999999940e+00 -1.739585299999999890e+00 -1.793387800000000087e+00 -1.583669500000000063e+00 -1.455573500000000076e+00 -1.341866100000000062e+00 -7.288490600000000486e-01 -3.170799400000000046e-01 -6.049348200000000120e-02 1.651613200000000004e-01 5.041486899999999549e-01 9.241170199999999557e-01 8.932949199999999923e-01 1.058965799999999957e+00 1.208099800000000057e+00 1.192223899999999892e+00 1.127092999999999900e+00 9.457987799999999501e-01 1.099736499999999895e+00 8.712445500000000065e-01 6.978158599999999545e-01 1.076326300000000069e+00 6.361445900000000098e-01 5.444764899999999797e-01 9.891854599999999609e-01 6.427481499999999626e-01 5.178545799999999533e-01 4.849622000000000099e-01 6.828856700000000002e-01 4.355186300000000177e-01 4.416436400000000040e-01 4.200539899999999882e-01 5.109901100000000529e-01 6.235019099999999925e-01 2.303170599999999901e-01 4.101542699999999875e-01 3.153687299999999860e-01 3.779987899999999734e-01 5.234908999999999812e-01 1.675996499999999889e-01 3.647385799999999789e-01 2.710375500000000160e-01 3.409186799999999740e-01 6.918298200000000397e-01 8.414201000000000041e-01 7.705667400000000278e-01 6.297962799999999861e-01 5.947369500000000420e-01 3.952374300000000007e-01 2.888523000000000063e-01 2.221909600000000068e-02 -1.102342999999999934e-01 2.482149599999999845e-02 -2.182386099999999995e-01 -8.441776700000000466e-02 3.121194799999999978e-02 -1.277158999999999933e-01 -3.056746599999999869e-01 -3.110867099999999885e-01 -1.981327700000000136e-01 -1.449043899999999940e-01 -2.361470800000000092e-01 -1.353318699999999930e-01 -2.407295799999999986e-01 -2.849835499999999744e-01 2.121343099999999926e-01
1.000000000000000000e+00 9.558043499999999693e-01 1.603963599999999934e+00 2.728596500000000091e+00 4.147563299999999842e+00 2.942623600000000117e+00 1.382092600000000004e+00 3.753065600000000251e-02 -3.399031900000000217e-01 4.654806300000000063e-01 7.971790300000000107e-01 7.451579099999999789e-01 3.779259500000000105e-01 6.586159499999999500e-01 3.309970099999999804e-01 -2.133113299999999934e-01 -3.512009999999999854e-01 -6.840676599999999663e-01 -5.234875900000000026e-01 -8.027501799999999799e-01 -8.746398399999999462e-01 -8.929084000000000465e-01 -1.057373700000000083e+00 -9.985216599999999776e-01 -1.266313699999999987e+00 -1.334537700000000049e+00 -1.493997800000000042e+00 -1.619152699999999889e+00 -1.509819199999999917e+00 -1.615114500000000008e+00 -1.941347500000000004e+00 -1.830447200000000052e+00 -1.824240700000000048e+00 -1.682949900000000110e+00 -1.801877399999999962e+00 -1.666200200000000020e+00 -1.275784500000000099e+00 -1.046546100000000035e+00 -7.740533200000000447e-01 -4.525906299999999938e-01 5.383269300000000090e-02 7.364566499999999905e-02 3.420665999999999984e-01 5.767830400000000246e-01 5.746651400000000187e-01 8.626883800000000324e-01 8.774562000000000195e-01 7.751911500000000510e-01 1.110150500000000040e+00 8.817839200000000544e-01 6.593076799999999515e-01 8.021494999999999598e-01 6.555500600000000455e-01 6.457436899999999813e-01 6.570428600000000063e-01 5.729884200000000538e-01 4.389180999999999777e-01 5.351542000000000243e-01 5.772003799999999574e-01 3.520897000000000054e-01 4.634274600000000133e-01 2.999845199999999767e-01 4.762010999999999883e-01 3.557568600000000081e-01 1.621867499999999906e-01 2.444329100000000032e-01 3.293937200000000010e-01 3.140721499999999944e-01 -1.258642299999999936e-01 2.894314700000000240e-01 1.359255600000000008e-01 9.415329699999999691e-02 -1.344252200000000015e-02 -1.029697599999999935e-02 3.876359799999999911e-01 4.799915100000000101e-01 7.209759199999999923e-01 2.818368199999999879e-01 4.153519399999999751e-01 5.191461099999999940e-01 -1.991803299999999888e-01 -1.367695900000000069e-02 -1.769208200000000064e-01 -2.053619100000000086e-01 -3.769545200000000151e-01 -3.448137900000000089e-01 -1.330454799999999937e-01 -3.986761099999999725e-01 -3.048562000000000216e-01 -4.550364299999999917e-01 -3.662183700000000153e-01 -1.370322200000000101e-01 -5.109564100000000275e-01 -4.146872999999999809e-01 -2.898429100000000092e-01 -4.719440899999999828e-01 -3.458979899999999885e-01
1.000000000000000000e+00 8.438343000000000371e-01 2.564764499999999892e+00 3.343127200000000077e+00 2.591810800000000192e+00 1.989914200000000077e+00 4.417426400000000197e-01 3.564083299999999954e-01 1.283446800000000110e+00 8.208119099999999779e-01 5.656735000000000513e-01 3.193881199999999976e-01 1.553781400000000049e-02 -1.401700700000000077e-01 -1.603326099999999865e-01 -2.144221099999999991e-01 -3.432282600000000072e-01 -6.414358399999999794e-01 -7.748361400000000065e-01 -7.543609599999999693e-01 -1.001432899999999959e+00 -1.248466899999999935e+00 -1.207492900000000091e+00 -1.394460000000000033e+00 -1.570863200000000015e+00 -1.550312899999999994e+00 -1.702577800000000030e+00 -1.761710700000000074e+00 -1.906301900000000105e+00 -2.025120199999999926e+00 -1.989132799999999923e+00 -2.175048600000000221e+00 -2.174752900000000100e+00 -1.909534700000000029e+00 -1.757095599999999980e+00 -1.471097799999999900e+00 -1.137170199999999909e+00 -7.289036500000000141e-01 -1.812001099999999976e-01 1.430457499999999993e-01 4.307334999999999914e-01 6.972240499999999841e-01 7.675121599999999988e-01 8.773685399999999746e-01 9.325734599999999652e-01 8.549357300000000048e-01 7.868010100000000229e-01 8.184117199999999537e-01 8.170173200000000469e-01 6.940489800000000375e-01 5.824825000000000141e-01 6.004454999999999654e-01 6.166940699999999831e-01 6.016722700000000090e-01 6.189415900000000414e-01 5.696986899999999521e-01 4.469555399999999845e-01 3.271315200000000090e-01 4.509738600000000042e-01 4.590816500000000078e-01 3.200241300000000177e-01 3.483970800000000256e-01 4.081865900000000158e-01 3.144421499999999758e-01 2.537043500000000229e-01 4.073317499999999924e-01 3.519539300000000259e-01 2.056249599999999955e-01 2.985977799999999793e-01 2.478294199999999947e-01 2.470809499999999936e-01 2.306123399999999990e-01 1.244148800000000055e-01 4.129936000000000162e-01 4.925650599999999990e-01 4.869951399999999930e-01 6.494230899999999806e-01 3.810607999999999773e-01 2.500587599999999910e-01 1.617672800000000133e-01 -7.809275799999999823e-02 -9.928094499999999545e-02 -1.671906599999999909e-01 -2.265996399999999911e-01 -3.591107399999999839e-01 -2.264783900000000016e-01 -1.540369099999999991e-01 -2.439692400000000039e-01 -2.427603500000000136e-01 -3.564878899999999740e-01 -2.456724799999999986e-01 -1.848784900000000064e-01 -2.773438100000000239e-01 -1.051026500000000058e-01 -1.697743600000000130e-01 -2.376431299999999872e-02 2.587318200000000012e-01
1.000000000000000000e+00 1.074981200000000081e+00 1.096512500000000001e+00 9.176987500000000075e-01 1.495719100000000079e+00 6.884595300000000417e-01 -4.157551400000000230e-01 -6.061035900000000254e-01 -6.518632800000000449e-01 -7.017336400000000474e-01 -7.873753300000000399e-01 -9.328674399999999922e-01 -9.600011600000000200e-01 -9.587875300000000545e-01 -1.223557800000000029e+00 -1.275084499999999954e+00 -1.362236199999999897e+00 -1.544734700000000016e+00 -1.521002399999999977e+00 -1.625760600000000000e+00 -1.731179400000000035e+00 -1.901706399999999908e+00 -1.817120499999999916e+00 -1.831736000000000031e+00 -2.032256600000000191e+00 -1.777559799999999912e+00 -1.652752599999999905e+00 -1.631108599999999909e+00 -1.404814900000000089e+00 -1.100974200000000014e+00 -8.970320200000000410e-01 -4.203283899999999962e-01 -2.326351200000000008e-02 3.342117900000000086e-01 7.954164400000000024e-01 9.357066699999999626e-01 1.071933800000000048e+00 1.384946299999999964e+00 1.383867699999999923e+00 1.328380899999999976e+00 1.401581600000000094e+00 1.231869199999999998e+00 1.105842200000000108e+00 1.022180199999999983e+00 8.698765200000000419e-01 8.776373400000000435e-01 7.241893400000000147e-01 6.650822100000000070e-01 7.569260700000000064e-01 6.647759899999999833e-01 5.720186600000000121e-01 5.419104099999999535e-01 6.142487399999999598e-01 4.544696100000000238e-01 3.055716800000000122e-01 5.127656699999999512e-01 3.458860200000000162e-01 2.429990099999999875e-01 2.872690299999999808e-01 3.560856800000000016e-02 1.606865199999999994e-01 2.768558799999999986e-01 -5.574820199999999670e-02 5.122378300000000190e-02 6.496215199999999523e-02 -9.943058499999999147e-03 1.234356799999999921e-02 2.095525300000000007e-02 3.430342800000000247e-01 3.503311399999999853e-01 4.214677399999999796e-01 2.860681900000000000e-01 4.521070700000000275e-02 -1.678591999999999862e-01 -2.384834399999999910e-01 -3.506257999999999875e-01 -3.628360099999999866e-01 -4.350419200000000264e-01 -4.191526099999999810e-01 -1.919903699999999935e-01 -3.862273600000000195e-01 -3.340031500000000264e-01 -1.622077000000000102e-01 -3.830926299999999896e-01 -2.720137300000000091e-01 -1.429833100000000023e-01 -3.166622800000000182e-01 -1.593869499999999995e-01 -3.391786500000000260e-01 2.742054600000000120e-01 2.590445900000000190e-01 1.300749399999999945e+00 3.011204199999999886e+00 2.238178599999999907e+00 1.838848700000000003e+00 9.828013100000000390e-01 -1.625815700000000086e-01
1.000000000000000000e+00 6.925064499999999956e-01 1.564399300000000048e+00 2.713643999999999945e+00 2.942577399999999788e+00 1.759732499999999922e+00 -2.624826100000000051e-01 -2.345466200000000112e-01 5.800906799999999697e-01 4.965927900000000061e-01 4.103719200000000011e-01 3.282818299999999967e-01 2.330151000000000028e-01 -3.222591300000000047e-01 -3.919214999999999782e-01 -5.552464799999999867e-01 -6.617636199999999969e-01 -7.349403300000000305e-01 -7.555276499999999951e-01 -8.023149800000000109e-01 -9.856896099999999938e-01 -1.120877799999999924e+00 -1.155197599999999936e+00 -1.346829000000000054e+00 -1.496043000000000012e+00 -1.548250600000000032e+00 -1.791113100000000014e+00 -1.979916299999999962e+00 -2.044837900000000097e+00 -2.070532399999999829e+00 -2.286939199999999950e+00 -2.280747499999999928e+00 -2.231745399999999879e+00 -2.150440000000000129e+00 -2.068473500000000076e+00 -1.532154500000000086e+00 -1.169747199999999987e+00 -1.046183800000000108e+00 -2.315376600000000062e-01 6.316734699999999869e-02 1.346627099999999910e-01 5.018207399999999874e-01 7.603997200000000012e-01 1.030719500000000011e+00 6.544416600000000361e-01 8.627163100000000417e-01 8.398017300000000240e-01 8.499994100000000108e-01 7.787023100000000086e-01 5.510014899999999827e-01 7.683044100000000487e-01 6.291345999999999883e-01 5.606431200000000503e-01 6.123205499999999635e-01 6.732183699999999549e-01 6.732285199999999969e-01 5.695137099999999508e-01 7.992566500000000129e-01 6.606444599999999889e-01 3.779207600000000222e-01 7.815405500000000005e-01 5.866264300000000320e-01 4.080837199999999831e-01 5.716513500000000025e-01 4.810858299999999921e-01 5.260002099999999681e-01 4.499426000000000259e-01 4.600076399999999954e-01 3.777482300000000182e-01 2.015842700000000098e-01 2.491472799999999987e-01 1.930196000000000134e-01 2.245940700000000068e-01 2.885058200000000239e-01 3.373584499999999764e-01 5.538212300000000532e-01 7.021280300000000141e-01 5.370573699999999784e-01 4.828288700000000211e-01 4.749892000000000003e-01 1.596762899999999985e-01 2.211550599999999867e-01 4.699192600000000331e-02 -1.567485799999999985e-01 2.258513099999999996e-01 -1.165514700000000042e-01 1.915207499999999896e-01 1.815905300000000139e-02 -2.762537899999999852e-02 -5.095103400000000268e-03 1.775059899999999885e-02 1.465093799999999946e-01 9.158257999999999677e-02 1.342392500000000044e-01 -1.152723100000000028e-01 2.210674499999999987e-01 2.444974599999999998e-01
1.000000000000000000e+00 1.372553999999999996e-01 1.636804600000000054e+00 3.338939199999999996e+00 2.870993900000000210e+00 2.265446600000000199e+00 6.769188299999999714e-01 -1.243100300000000047e+00 -4.051029300000000277e-01 1.872202400000000100e-01 -3.564572300000000138e-01 -3.134563200000000105e-01 -7.635704999999999576e-02 -4.920241399999999987e-02 -6.852696400000000132e-01 -8.308694800000000491e-01 -5.286577900000000163e-01 -7.696341599999999561e-01 -1.042505299999999968e+00 -7.736739000000000255e-01 -1.196392399999999911e+00 -9.902687399999999807e-01 -8.495835800000000049e-01 -1.375324200000000108e+00 -1.478587099999999932e+00 -1.410193500000000100e+00 -1.629032199999999930e+00 -2.059803500000000120e+00 -1.466865300000000039e+00 -1.727077100000000032e+00 -2.176297899999999785e+00 -1.942300700000000102e+00 -1.826189700000000027e+00 -1.929535299999999953e+00 -1.350318200000000024e+00 -1.325653299999999923e+00 -7.508400499999999811e-01 -3.207000700000000037e-01 -5.273444400000000254e-01 3.004507100000000097e-01 3.726614899999999841e-01 7.435846400000000189e-01 1.070912300000000039e+00 9.133491999999999722e-01 1.232633199999999984e+00 8.692761100000000463e-01 1.168275600000000081e+00 1.208491900000000063e+00 8.434480100000000258e-01 9.591997700000000071e-01 6.534343099999999627e-01 9.204006200000000026e-01 8.023907599999999807e-01 4.652846500000000218e-01 5.693575699999999795e-01 4.669962699999999911e-01 9.616474799999999989e-01 6.397752599999999568e-01 3.297885199999999739e-01 4.265457899999999802e-01 6.848285200000000517e-01 6.132052700000000245e-01 1.342323400000000055e-01 6.369584400000000146e-01 4.981744799999999751e-01 3.635456699999999874e-01 5.185509499999999550e-01 3.060074500000000142e-01 3.450068700000000210e-01 -2.021597199999999872e-01 4.738803699999999952e-01 3.647261800000000109e-01 5.723185199999999972e-02 1.904531999999999892e-01 4.963160999999999823e-01 8.361170300000000388e-01 8.762650899999999687e-01 9.580769300000000488e-01 5.735849600000000326e-01 1.094829799999999936e-01 3.326258899999999796e-01 1.723694199999999954e-01 -2.354365200000000102e-01 -1.153944499999999956e-01 -2.306735099999999983e-01 -1.990166899999999961e-01 -5.044432299999999925e-02 5.093924899999999895e-02 -2.140543000000000029e-01 -4.033986500000000253e-01 -1.353518300000000063e-01 -1.417094000000000131e-01 -3.007005400000000161e-01 -1.656795600000000035e-01 -6.425826199999999655e-02 -3.659312100000000068e-01 -3.932594200000000262e-01
1.000000000000000000e+00 5.694058199999999653e-02 1.190401100000000101e+00 2.257063800000000064e+00 1.518460799999999944e+00 1.377125099999999991e+00 -1.115844299999999983e-01 -1.602366399999999969e+00 -2.608979100000000106e-01 6.612231200000000253e-02 -3.538002100000000039e-01 -1.803714800000000007e-01 -2.189908499999999869e-01 -5.003999599999999770e-01 -1.092628799999999956e+00 -9.126988999999999796e-01 -1.097682999999999964e+00 -1.457362899999999906e+00 -1.085422000000000109e+00 -1.343262399999999968e+00 -1.286639700000000053e+00 -1.178319200000000011e+00 -1.700237299999999951e+00 -1.537136800000000081e+00 -1.444574800000000048e+00 -1.694372299999999942e+00 -1.965856599999999954e+00 -1.959241900000000092e+00 -1.718931900000000068e+00 -2.127564399999999800e+00 -2.127200799999999781e+00 -2.081350399999999823e+00 -1.916388900000000062e+00 -1.837730499999999934e+00 -1.761517400000000011e+00 -1.218828900000000104e+00 -1.057379099999999905e+00 -8.378627300000000000e-01 -3.619156000000000040e-01 -5.969736099999999740e-02 4.332620699999999991e-01 5.173954100000000000e-01 4.237395899999999993e-01 7.792782700000000506e-01 8.212017400000000134e-01 8.806210399999999661e-01 8.458174200000000420e-01 7.151031199999999810e-01 6.571464000000000194e-01 7.922078700000000362e-01 5.631272200000000394e-01 5.337975200000000253e-01 7.509695800000000254e-01 5.746654700000000116e-01 5.448562399999999917e-01 4.456613099999999772e-01 6.632076700000000269e-01 5.030277399999999455e-01 5.694294899999999826e-01 6.863657499999999967e-01 4.648523500000000253e-01 7.653729299999999514e-01 4.460934400000000077e-01 4.765243599999999802e-01 5.130723700000000553e-01 4.816039200000000187e-01 6.632102300000000117e-01 3.224075299999999977e-01 5.663050200000000478e-01 4.129094700000000007e-01 5.993163000000000240e-01 5.223429899999999515e-01 4.607015500000000152e-01 5.554973100000000219e-01 8.536944400000000543e-01 9.980594000000000410e-01 1.081579999999999986e+00 1.145601099999999928e+00 8.741788499999999518e-01 6.624682800000000205e-01 6.342116399999999654e-01 6.020301500000000416e-01 3.792853099999999866e-01 3.863474700000000261e-01 5.565422599999999553e-01 4.663991800000000243e-01 2.413460799999999906e-01 4.905416200000000115e-01 3.804648700000000106e-01 3.651311700000000049e-01 4.376298499999999869e-01 2.819010299999999969e-01 4.071515499999999732e-01 7.341033599999999826e-01 4.866962799999999811e-01 4.253362800000000110e-01 7.823115200000000380e-01
1.000000000000000000e+00 5.437765500000000252e-01 1.457817300000000094e+00 2.839768700000000035e+00 3.463320500000000024e+00 2.131417700000000082e+00 2.835902100000000092e-01 -8.774643300000000146e-01 5.540756599999999837e-02 8.763820900000000025e-01 7.457606300000000354e-01 3.563325999999999993e-01 2.389869000000000021e-01 6.126271899999999881e-01 -7.241172299999999451e-01 -7.691099300000000527e-01 -5.519763699999999940e-01 -8.702487100000000364e-01 -8.139394500000000088e-01 -9.563952100000000511e-01 -9.883426100000000103e-01 -9.068957699999999900e-01 -1.296180099999999946e+00 -1.392156600000000077e+00 -1.262654600000000071e+00 -1.435751599999999906e+00 -1.478993699999999967e+00 -1.673526800000000092e+00 -1.755914699999999939e+00 -1.726124800000000015e+00 -1.999780700000000078e+00 -1.859940499999999997e+00 -2.099635600000000046e+00 -1.986987199999999953e+00 -1.725398399999999999e+00 -1.893629800000000030e+00 -1.308641100000000002e+00 -8.945175100000000157e-01 -9.560058399999999956e-01 -3.828431600000000157e-01 5.738649900000000054e-02 5.214243600000000034e-02 4.296248799999999868e-01 6.839713499999999780e-01 7.378561999999999621e-01 9.108614099999999825e-01 8.170200800000000374e-01 1.018135000000000012e+00 9.438335300000000316e-01 7.401023300000000305e-01 9.352043100000000386e-01 7.279076599999999564e-01 6.227001500000000078e-01 6.104847300000000310e-01 5.247513900000000397e-01 7.260290000000000354e-01 7.639415299999999798e-01 6.714780200000000088e-01 5.227007799999999760e-01 6.868551699999999594e-01 6.709441800000000011e-01 5.605906699999999576e-01 7.093257600000000274e-01 3.799698799999999821e-01 3.418560800000000066e-01 6.840612700000000546e-01 3.878294400000000253e-01 2.907745600000000152e-01 3.898130000000000206e-01 2.214980400000000071e-01 3.540900499999999895e-01 3.835971000000000242e-01 2.185309000000000001e-01 2.492586599999999930e-01 3.919980100000000078e-01 8.440856799999999494e-01 6.728744100000000339e-01 5.827842699999999931e-01 5.590265500000000110e-01 2.925373600000000240e-01 2.805276500000000173e-01 6.882086299999999601e-02 1.899130499999999999e-01 3.140520400000000080e-03 -1.868951500000000099e-01 -1.369094399999999934e-01 -4.224241399999999896e-02 -4.759062900000000235e-02 -2.482240199999999897e-01 -1.256063900000000122e-01 -2.121704500000000104e-01 6.403561000000000669e-02 -8.964804399999999618e-02 -4.680146700000000215e-01 -3.084646500000000000e-02 -2.376690999999999943e-01 -1.670688700000000082e-01
1.000000000000000000e+00 1.398472200000000054e+00 2.874770799999999848e+00 3.453428300000000117e+00 2.897918900000000075e+00 1.260043199999999919e+00 1.733318100000000028e-01 1.289293400000000034e+00 1.470053800000000077e+00 1.028398099999999982e+00 1.333151500000000045e+00 8.777578999999999798e-01 1.376943200000000089e-01 -5.379038800000000009e-01 -5.387385999999999564e-01 -7.524779499999999510e-01 -8.512495100000000425e-01 -8.740641399999999894e-01 -9.854246399999999628e-01 -9.248127900000000512e-01 -1.142310900000000018e+00 -1.198901299999999948e+00 -1.327447100000000102e+00 -1.325352300000000039e+00 -1.311842100000000011e+00 -1.615285400000000093e+00 -1.489392100000000108e+00 -1.519243399999999911e+00 -1.643567900000000082e+00 -1.765136299999999991e+00 -1.780862699999999910e+00 -1.769367899999999993e+00 -1.703646200000000110e+00 -1.580838100000000024e+00 -1.514496999999999982e+00 -1.256231899999999957e+00 -8.445101499999999595e-01 -5.847162399999999982e-01 -2.549740899999999866e-01 9.408475800000000444e-02 3.243359100000000050e-01 5.510783799999999788e-01 7.452809200000000134e-01 9.506987700000000263e-01 9.307193900000000353e-01 9.546491999999999756e-01 9.394426900000000247e-01 8.843247699999999822e-01 7.720101400000000114e-01 7.258913500000000463e-01 6.865549699999999866e-01 5.125338499999999575e-01 5.094376999999999933e-01 5.623938800000000127e-01 5.098419899999999672e-01 5.174401199999999479e-01 6.385410999999999726e-01 5.963710399999999634e-01 5.173033999999999688e-01 4.244534899999999888e-01 3.800320799999999943e-01 4.663492000000000193e-01 4.954778599999999922e-01 3.491753100000000165e-01 2.887530700000000006e-01 3.915223199999999792e-01 2.670604799999999890e-01 1.300922399999999979e-01 1.354722499999999885e-01 1.469021000000000077e-01 2.199270500000000128e-01 5.865425400000000289e-02 5.637227300000000052e-02 8.648537100000000533e-02 8.106045400000000400e-02 3.681457599999999886e-01 4.222538699999999756e-01 3.281517099999999854e-01 9.720451900000000311e-02 9.359646900000000158e-02 1.712237799999999921e-01 -7.563053699999999768e-02 -2.200972300000000048e-01 -3.843135200000000196e-01 -1.145209300000000069e-01 -3.172083700000000173e-01 -5.116162400000000554e-01 -4.062421999999999978e-01 -5.257545500000000427e-01 -4.394222700000000037e-01 -3.984949999999999881e-01 -3.667393299999999745e-01 -3.991981000000000002e-01 -4.011090999999999962e-01 -3.710768300000000242e-01 -4.511804700000000001e-01 -1.002149700000000004e-01
1.000000000000000000e+00 4.931285300000000094e-01 -1.653158600000000089e-01 1.513972799999999952e-01 -1.691904800000000042e-01 -1.164291699999999985e-01 -2.915887200000000234e-01 -1.101100799999999991e+00 -3.879640200000000205e-01 -1.050121499999999930e+00 -1.337367799999999995e+00 -5.035908199999999946e-01 -1.255388399999999960e+00 -1.044339200000000023e+00 -9.007175699999999674e-01 -1.451477799999999929e+00 -1.263485699999999934e+00 -1.554001500000000036e+00 -1.507950200000000018e+00 -1.297943099999999905e+00 -1.389569899999999913e+00 -1.853967799999999944e+00 -1.708668000000000076e+00 -1.769195999999999991e+00 -1.630506500000000081e+00 -1.655763899999999955e+00 -2.464458800000000060e+00 -1.472950299999999935e+00 -1.753552199999999894e+00 -1.922816199999999975e+00 -7.468206200000000461e-01 -1.015655699999999939e+00 -6.404841399999999796e-01 -5.229414399999999796e-01 -5.285345400000000110e-02 5.758462500000000039e-02 1.035244200000000059e-01 4.423592499999999816e-01 3.048311300000000057e-01 8.003371900000000316e-01 2.162925300000000106e-01 1.955098799999999970e-01 5.459817300000000539e-01 4.409268000000000076e-01 4.553994399999999887e-01 2.200910399999999878e-01 3.756119199999999880e-01 5.915042799999999934e-01 3.712271600000000005e-01 4.106582100000000235e-01 4.421013899999999830e-01 2.929462999999999928e-01 2.897305700000000206e-01 4.432666100000000053e-01 4.126691599999999793e-01 2.024936200000000130e-01 2.928398999999999863e-01 5.220139299999999594e-01 6.728781799999999924e-01 8.909602599999999484e-01 4.013042299999999840e-01 2.873983399999999744e-01 2.268983400000000039e-01 3.478747400000000156e-01 5.380535600000000418e-01 3.357731800000000044e-01 7.066485399999999917e-01 8.743417100000000497e-01 9.818689699999999521e-01 9.720851999999999826e-01 5.932536899999999447e-01 4.294799400000000045e-01 3.620724300000000007e-01 2.127184299999999861e-01 3.368586100000000028e-01 1.172106499999999996e-01 3.178757599999999794e-02 2.844648200000000071e-01 1.623733699999999891e-01 1.876758199999999932e-01 2.857845800000000103e-01 2.535071999999999881e-01 4.273580299999999998e-01 3.955307200000000023e-01 2.836868000000000167e-01 4.695360900000000171e-01 4.328597299999999981e-01 4.475130299999999783e-01 4.572866099999999823e-01 7.596194200000000452e-01 8.396174499999999874e-01 2.079443700000000117e+00 3.230255099999999935e+00 2.759804599999999830e+00 2.422561200000000081e+00 1.240436400000000106e+00 1.849694500000000075e-01
1.000000000000000000e+00 4.049532000000000131e-01 5.539959800000000545e-01 7.240970700000000093e-01 1.449039399999999977e+00 2.012616299999999914e+00 1.624476899999999890e+00 1.204726200000000080e+00 1.117510900000000085e+00 5.620994900000000349e-01 -1.155646999999999924e-02 -1.510596600000000123e-01 -1.657234599999999891e-01 -1.497034200000000037e-01 -3.039849099999999971e-01 -4.395499299999999776e-01 -2.512221099999999985e-01 -2.264616100000000076e-01 -4.912359000000000031e-01 -7.184712800000000454e-01 -8.190334799999999804e-01 -7.429019799999999618e-01 -7.948623000000000216e-01 -1.005411000000000055e+00 -8.546672699999999789e-01 -6.647192600000000340e-01 -9.660592700000000255e-01 -1.250550599999999957e+00 -1.148752599999999902e+00 -1.081805399999999917e+00 -1.229859299999999989e+00 -1.329427799999999937e+00 -1.343500099999999975e+00 -1.388611400000000051e+00 -1.469789900000000094e+00 -1.529445900000000025e+00 -1.452890999999999933e+00 -1.438497600000000043e+00 -1.637807999999999931e+00 -1.637642599999999948e+00 -1.516325799999999946e+00 -1.625190899999999994e+00 -1.618808000000000025e+00 -1.499533800000000028e+00 -1.529352400000000056e+00 -1.413233399999999973e+00 -1.166556900000000008e+00 -1.070406100000000027e+00 -1.012600399999999956e+00 -8.233872300000000255e-01 -5.027743500000000365e-01 -2.399464000000000041e-01 -1.358685599999999993e-01 -1.056090399999999943e-02 9.175777499999999975e-02 1.421894900000000026e-03 2.042255999999999933e-02 3.619093299999999735e-01 5.233651700000000462e-01 3.128456000000000015e-01 2.904675899999999977e-01 4.979416400000000187e-01 5.044091099999999939e-01 4.182768599999999726e-01 4.228045100000000223e-01 3.919181400000000259e-01 3.860675900000000160e-01 4.685770499999999950e-01 4.115919100000000053e-01 2.601084200000000068e-01 3.416326599999999769e-01 5.504000500000000295e-01 6.048159100000000121e-01 4.941830600000000073e-01 3.860656100000000035e-01 5.020978900000000467e-01 5.911091400000000329e-01 4.761996299999999849e-01 6.601065999999999878e-01 9.287231299999999523e-01 8.016583400000000248e-01 7.801442699999999730e-01 9.348362399999999850e-01 9.810239200000000492e-01 1.092867100000000091e+00 1.151627699999999921e+00 1.203221799999999897e+00 1.297938400000000048e+00 1.243332000000000104e+00 1.463615600000000017e+00 1.694916099999999926e+00 1.456114799999999931e+00 1.570371699999999926e+00 1.934583799999999965e+00 1.497555500000000039e+00 8.125700000000000145e-01 3.906392599999999882e-01
1.000000000000000000e+00 1.080026399999999942e+00 1.994263099999999955e+00 1.122329300000000085e+00 1.519025899999999929e+00 2.315926399999999885e-01 -5.338726099999999697e-01 3.917472200000000071e-01 3.491935800000000034e-01 1.218236800000000036e-01 2.036874700000000094e-01 -1.361262799999999884e-01 -9.592904399999999665e-01 -9.090973399999999760e-01 -1.109990400000000044e+00 -1.202722800000000092e+00 -1.218154100000000017e+00 -1.308584399999999981e+00 -1.382969300000000068e+00 -1.418668599999999946e+00 -1.471567099999999906e+00 -1.457720399999999916e+00 -1.588021799999999928e+00 -1.704405200000000065e+00 -1.637115799999999899e+00 -1.791860900000000090e+00 -1.888398199999999916e+00 -1.909060100000000038e+00 -2.038323399999999896e+00 -2.043234700000000181e+00 -2.032939900000000133e+00 -2.043008299999999888e+00 -1.936422199999999982e+00 -1.877107700000000046e+00 -1.516575299999999960e+00 -1.386696499999999999e+00 -1.051412900000000095e+00 -5.989507600000000265e-01 -4.575562499999999977e-01 -3.472644500000000162e-02 1.435710600000000003e-01 3.180554099999999829e-01 4.944268700000000183e-01 6.118772700000000286e-01 7.038164000000000087e-01 6.276719200000000498e-01 6.939208300000000440e-01 6.222678999999999849e-01 6.580998099999999518e-01 6.239568199999999676e-01 5.870057100000000139e-01 7.274479600000000046e-01 7.001142200000000093e-01 6.786837399999999798e-01 6.968592799999999698e-01 8.010924099999999770e-01 7.068610600000000410e-01 7.497118099999999785e-01 7.945372899999999516e-01 7.285876999999999493e-01 6.099157099999999998e-01 6.229328200000000537e-01 7.530863599999999547e-01 7.108841599999999872e-01 5.646120000000000028e-01 5.763435799999999665e-01 6.814903900000000014e-01 5.702804700000000393e-01 5.597101199999999777e-01 6.240621100000000032e-01 4.283477800000000113e-01 4.947313199999999744e-01 5.654967300000000030e-01 6.457514300000000151e-01 8.442576299999999812e-01 9.716370500000000021e-01 9.312780699999999579e-01 8.329502100000000242e-01 6.771121500000000237e-01 5.584726300000000254e-01 5.162957900000000322e-01 4.322250499999999995e-01 5.123359400000000452e-01 4.397548299999999855e-01 3.386843199999999832e-01 4.431285200000000257e-01 3.615779900000000158e-01 4.162527300000000152e-01 3.488371299999999953e-01 3.686187200000000108e-01 4.458177899999999916e-01 3.909387799999999857e-01 3.880148400000000275e-01 4.718963299999999750e-01 3.619019800000000120e-01 6.193535399999999802e-01 8.833382600000000417e-01
1.000000000000000000e+00 1.223899000000000070e+00 2.514981300000000086e+00 2.774497799999999792e+00 1.696500200000000014e+00 -1.385826300000000122e-01 -2.547836499999999726e-01 1.077328999999999981e+00 1.004762600000000061e+00 1.030640999999999918e+00 1.110552800000000007e+00 1.709749700000000039e-01 -3.253669799999999723e-01 -7.776602999999999710e-01 -8.530564600000000164e-01 -7.991498799999999791e-01 -9.679499200000000192e-01 -1.037942900000000002e+00 -1.034501499999999963e+00 -1.103019999999999889e+00 -1.287640700000000082e+00 -1.307350199999999907e+00 -1.441462500000000091e+00 -1.589099299999999992e+00 -1.682369199999999898e+00 -1.840046599999999977e+00 -1.726182899999999965e+00 -1.882473099999999899e+00 -2.061240699999999926e+00 -1.970155199999999995e+00 -2.030223200000000006e+00 -2.049136299999999800e+00 -1.950240999999999891e+00 -1.852250100000000010e+00 -1.537240500000000010e+00 -1.227027000000000090e+00 -9.512428499999999731e-01 -4.624095200000000183e-01 -1.003188500000000011e-01 1.338296800000000064e-01 4.145345599999999964e-01 6.737357999999999958e-01 8.416985599999999845e-01 7.595312300000000016e-01 8.263389399999999663e-01 8.530642800000000081e-01 7.315844700000000422e-01 7.167020800000000191e-01 8.673403600000000324e-01 8.808068999999999482e-01 7.156640499999999960e-01 7.423121499999999484e-01 8.669259000000000270e-01 8.017660699999999974e-01 7.167812999999999546e-01 8.721186300000000058e-01 8.571176600000000034e-01 6.309925600000000356e-01 6.848233000000000237e-01 6.434491500000000253e-01 6.206773100000000376e-01 4.918079699999999832e-01 6.035639099999999813e-01 3.198013200000000000e-01 1.230085800000000062e-01 3.326352200000000092e-01 1.672504900000000017e-01 2.866769299999999965e-01 6.834357000000000626e-02 2.217415699999999990e-02 3.063163300000000255e-01 1.349782499999999941e-01 2.826648299999999780e-01 1.997446300000000063e-01 -2.393388999999999933e-01 1.302408600000000138e-01 5.279762399999999856e-01 5.401405500000000526e-01 8.112719400000000247e-01 5.563673700000000277e-01 5.085995700000000008e-01 6.189655299999999860e-01 -2.930983900000000072e-02 -1.569708300000000056e-01 4.758832100000000287e-02 5.536506500000000219e-01 1.011476600000000003e-01 -6.506516399999999478e-02 1.583420600000000067e-01 8.038290800000000291e-02 -1.251495199999999933e-02 -3.125659399999999866e-01 2.587975399999999926e-01 3.749327599999999761e-01 -2.323909600000000075e-01 8.858406900000000139e-02 1.363925599999999960e-01
1.000000000000000000e+00 -8.807916899999999882e-02 1.560575200000000051e-01 1.603512800000000071e+00 2.980952999999999964e+00 2.694373300000000082e+00 2.036180100000000159e+00 1.136626099999999973e-01 -1.471183899999999989e+00 1.741685100000000055e-02 5.112746099999999627e-01 3.208757000000000015e-03 4.751395999999999953e-01 1.201551000000000008e-01 -2.914455499999999977e-01 -6.441345600000000227e-01 -8.320906399999999925e-01 -8.983608499999999886e-01 -8.635751600000000083e-01 -7.880196299999999709e-01 -8.673397699999999544e-01 -1.053600099999999928e+00 -1.044619399999999976e+00 -1.122808699999999993e+00 -1.408579800000000048e+00 -1.562668399999999957e+00 -1.615339999999999998e+00 -1.710306300000000057e+00 -1.967510199999999987e+00 -2.085755400000000037e+00 -2.095607600000000126e+00 -2.010715600000000158e+00 -2.102501000000000175e+00 -2.047285000000000021e+00 -1.779812299999999903e+00 -1.560288300000000072e+00 -1.339593899999999893e+00 -1.033965900000000104e+00 -6.078859800000000480e-01 -1.764891000000000099e-01 8.355022099999999396e-02 2.951819700000000157e-01 6.710389300000000334e-01 8.768326699999999807e-01 9.693352800000000213e-01 9.758778000000000175e-01 1.083313900000000052e+00 1.016151000000000026e+00 9.910862000000000283e-01 9.314741699999999902e-01 8.762350800000000550e-01 9.307276199999999777e-01 6.464536899999999697e-01 6.897551100000000046e-01 7.834509200000000506e-01 5.507241099999999889e-01 6.057766700000000171e-01 5.655934299999999526e-01 5.875156599999999951e-01 5.827245300000000183e-01 4.167626700000000017e-01 4.488552100000000045e-01 4.754762399999999944e-01 4.837311400000000039e-01 4.727674399999999832e-01 4.354747700000000110e-01 5.315938599999999736e-01 4.242089600000000238e-01 2.531018600000000118e-01 3.249024200000000251e-01 3.556394299999999786e-01 3.053017800000000226e-01 2.712650999999999812e-01 4.628637899999999972e-01 7.193906500000000204e-01 8.872993599999999814e-01 7.991364800000000379e-01 7.682152399999999659e-01 7.158021900000000048e-01 3.438695299999999788e-01 1.837727000000000110e-01 1.214204499999999992e-01 -7.149663300000000388e-02 -1.188177700000000031e-01 -3.161946300000000043e-02 -6.151882599999999868e-02 -4.854059799999999730e-02 6.999041899999999816e-02 7.138562800000000652e-02 -1.083106900000000046e-02 -1.187547199999999942e-01 -2.752713099999999982e-02 -6.322706300000000001e-02 -1.219905800000000012e-01 1.878164699999999854e-02 -3.815447300000000125e-02 -3.701604399999999968e-03
1.000000000000000000e+00 2.094263700000000006e-01 1.273328599999999922e+00 2.824314199999999886e+00 3.592305899999999941e+00 2.223661599999999794e+00 5.703740600000000160e-01 -9.387727200000000050e-01 -8.128026600000000101e-01 -9.358590499999999701e-03 -2.664576499999999903e-01 -2.793572300000000119e-01 -2.596680399999999889e-01 -4.298028100000000212e-02 -4.064509000000000039e-01 -7.746623000000000259e-01 -9.000301699999999627e-01 -9.002568800000000371e-01 -9.428943800000000319e-01 -1.001072799999999985e+00 -1.117850000000000010e+00 -1.050033299999999947e+00 -1.050915199999999938e+00 -1.268603699999999890e+00 -1.374873599999999918e+00 -1.494795400000000107e+00 -1.539803999999999951e+00 -1.624432300000000051e+00 -1.751375600000000032e+00 -1.763120400000000032e+00 -1.854804300000000072e+00 -1.927412700000000090e+00 -1.900142400000000009e+00 -1.948784899999999931e+00 -1.660788500000000001e+00 -1.562316599999999944e+00 -1.252762900000000013e+00 -9.095018299999999556e-01 -7.336203700000000216e-01 -1.049926399999999982e-01 8.004536700000000615e-02 2.414040000000000075e-01 4.893042799999999803e-01 6.483745100000000150e-01 8.781622799999999618e-01 8.070553599999999994e-01 1.002048899999999909e+00 1.078433100000000033e+00 9.845931399999999778e-01 1.009194799999999947e+00 8.176749399999999612e-01 8.875262000000000429e-01 8.376703300000000185e-01 6.312626000000000071e-01 7.948835600000000445e-01 7.382100499999999510e-01 6.424883900000000203e-01 6.669529600000000391e-01 5.249307100000000226e-01 6.310950499999999908e-01 6.251325100000000301e-01 6.833384799999999704e-01 5.549084800000000373e-01 5.256986399999999948e-01 5.450382099999999674e-01 4.924215900000000201e-01 6.624227999999999783e-01 4.667844600000000121e-01 3.116860599999999870e-01 3.215090400000000237e-01 3.761857399999999907e-01 4.251679899999999956e-01 5.511268599999999962e-01 2.280094400000000077e-01 6.656397200000000458e-01 9.935397400000000045e-01 7.410246200000000227e-01 5.370241399999999832e-01 3.658672600000000275e-01 5.254836600000000191e-01 2.108666100000000099e-01 1.065220999999999946e-01 2.893156599999999745e-01 -2.483949100000000087e-03 -5.284819699999999953e-02 -1.054195500000000008e-01 1.237361800000000012e-01 -6.740266599999999997e-02 -2.714002999999999832e-01 -7.028247399999999756e-02 -1.055550400000000028e-01 -1.038635200000000060e-03 -6.547001900000000429e-02 -1.746607900000000102e-01 -4.962910000000000064e-03 -2.869329899999999850e-02 -3.725804199999999816e-02
1.000000000000000000e+00 5.302064499999999958e-01 2.140217199999999931e+00 2.766079200000000071e+00 1.530995200000000001e+00 -4.230288999999999855e-01 -9.672431799999999802e-01 1.479285899999999987e-01 5.363725400000000088e-01 6.256925300000000245e-01 7.384909100000000004e-01 5.200151800000000213e-01 -6.480894800000000511e-02 -8.567616799999999699e-01 -8.530343700000000418e-01 -1.186042899999999900e+00 -1.187191300000000060e+00 -1.281387199999999948e+00 -1.515255599999999925e+00 -1.256900899999999988e+00 -1.521084499999999951e+00 -1.432023000000000046e+00 -1.444395899999999955e+00 -1.706403399999999904e+00 -1.501678599999999975e+00 -1.543383500000000019e+00 -1.610613400000000084e+00 -1.897642599999999957e+00 -1.789767200000000003e+00 -1.704270500000000022e+00 -1.993282199999999893e+00 -1.639210000000000056e+00 -1.782264700000000035e+00 -1.758795000000000108e+00 -1.558156799999999897e+00 -1.401451699999999967e+00 -9.118894899999999692e-01 -6.249009300000000211e-01 -3.723572099999999940e-01 -5.226052800000000054e-02 2.853452200000000105e-01 4.586024100000000159e-01 7.007499400000000156e-01 8.743371800000000471e-01 9.871703200000000455e-01 1.011174199999999912e+00 9.409942599999999713e-01 1.034401899999999985e+00 9.536701400000000550e-01 8.824684699999999493e-01 9.624795000000000433e-01 9.036337800000000531e-01 9.019531400000000421e-01 9.059826699999999899e-01 8.386156399999999955e-01 9.050798399999999688e-01 9.931430799999999559e-01 8.460332499999999589e-01 8.707582900000000459e-01 9.176566400000000234e-01 7.475117599999999696e-01 8.484788599999999459e-01 8.253373200000000409e-01 6.160796699999999682e-01 6.806585499999999733e-01 6.502044999999999630e-01 5.794445200000000185e-01 5.280835699999999466e-01 3.647302700000000231e-01 4.560493800000000042e-01 4.808238799999999813e-01 3.356061200000000078e-01 5.023059600000000513e-01 4.628168500000000019e-01 5.777408899999999514e-01 7.246968400000000088e-01 7.766978599999999622e-01 6.684212499999999668e-01 3.383642299999999881e-01 2.906267399999999945e-01 2.163158000000000025e-01 9.794350799999999857e-02 3.596374000000000098e-02 3.146340100000000108e-03 2.766700999999999883e-02 -1.714952900000000016e-02 -2.976329299999999883e-03 -9.704456599999999877e-02 -9.769340299999999810e-02 -1.433456600000000136e-01 -1.489686299999999908e-01 -6.140507299999999752e-02 -1.581163499999999889e-01 -1.275694699999999904e-01 -1.217335999999999974e-01 3.718890600000000074e-02 2.303370499999999876e-01
1.000000000000000000e+00 9.363357900000000011e-01 2.287949199999999905e+00 3.713924800000000026e+00 2.631453299999999995e+00 2.347205699999999950e+00 1.364225100000000079e+00 -5.370916399999999813e-01 2.389428399999999897e-01 1.084494800000000092e+00 7.057558299999999729e-01 6.122416600000000209e-01 8.103742099999999837e-01 5.058851300000000162e-01 -2.470772800000000102e-01 -6.800906199999999791e-01 -4.432167699999999821e-01 -7.247782699999999467e-01 -7.239973600000000342e-01 -8.519025000000000070e-01 -1.050956299999999954e+00 -8.086389899999999464e-01 -1.160774299999999926e+00 -1.301879699999999973e+00 -1.250798899999999936e+00 -1.525596799999999975e+00 -1.347569400000000028e+00 -1.522598300000000071e+00 -1.786737699999999984e+00 -1.654811400000000043e+00 -1.809989499999999918e+00 -1.577062600000000092e+00 -2.098134599999999850e+00 -1.925582799999999928e+00 -1.600660799999999995e+00 -1.616961499999999941e+00 -1.478550100000000089e+00 -1.175820599999999994e+00 -8.261900100000000302e-01 -5.779467600000000038e-01 -1.682022499999999976e-01 -1.251030099999999867e-01 5.729127000000000525e-01 4.460172700000000212e-01 3.545524700000000085e-01 8.579499499999999612e-01 8.410406299999999558e-01 9.009819500000000314e-01 8.550525300000000328e-01 9.005453199999999825e-01 6.830053299999999661e-01 6.861178700000000186e-01 7.854131399999999541e-01 4.160330600000000101e-01 6.220851200000000469e-01 5.042436099999999533e-01 4.660775899999999861e-01 4.724252199999999791e-01 5.516039799999999937e-01 5.210738200000000209e-01 5.052981600000000517e-01 3.038742099999999779e-01 5.217219600000000401e-01 5.242695000000000549e-01 1.509093800000000096e-01 4.779923200000000261e-01 3.451014600000000265e-01 3.023176200000000091e-01 4.672789199999999865e-01 7.230111599999999861e-02 2.531349700000000147e-01 3.025627000000000177e-01 3.184755400000000014e-01 2.973174699999999726e-01 7.206253000000000242e-01 6.856196100000000460e-01 5.193339399999999939e-01 4.133341999999999850e-01 3.237491299999999961e-01 2.719903599999999866e-01 -1.714853400000000139e-01 -2.168528299999999964e-01 -3.420482799999999962e-02 -3.213296300000000050e-02 -5.664836300000000158e-01 -1.816900100000000129e-01 -9.085080800000000512e-02 -2.282303499999999985e-01 -2.304860699999999873e-01 -4.543771200000000232e-01 -3.138551700000000166e-01 -1.683527800000000074e-01 -2.300680200000000120e-01 -3.459879100000000096e-01 -3.208328599999999975e-01 -1.567097899999999877e-01 -1.118063599999999935e-01
1.000000000000000000e+00 5.713880500000000362e-01 8.845267999999999464e-01 2.709640400000000060e+00 3.613691699999999951e+00 2.394226399999999977e+00 1.752418800000000054e+00 3.915648099999999854e-01 2.007512999999999936e-01 1.275802799999999904e+00 1.036182299999999890e+00 8.528405700000000200e-01 8.427838500000000010e-01 3.842529399999999873e-01 -3.708439399999999830e-01 -5.355324900000000277e-01 -7.165854200000000285e-01 -8.503473799999999860e-01 -9.215624399999999827e-01 -8.934090500000000379e-01 -9.505412300000000148e-01 -1.135217499999999990e+00 -1.151459100000000069e+00 -1.176131299999999991e+00 -1.314893199999999984e+00 -1.350984699999999927e+00 -1.436506899999999920e+00 -1.661270599999999931e+00 -1.719417699999999938e+00 -1.770509200000000005e+00 -1.802587399999999951e+00 -1.930424700000000104e+00 -1.953996000000000066e+00 -1.888262300000000060e+00 -1.857096700000000045e+00 -1.753376800000000069e+00 -1.514200100000000049e+00 -1.159228399999999937e+00 -8.745961700000000061e-01 -5.933298000000000183e-01 -1.991772599999999949e-01 1.566742899999999938e-01 3.548533400000000171e-01 5.237021699999999669e-01 7.859436499999999937e-01 8.818388600000000022e-01 8.773144699999999574e-01 9.386129199999999617e-01 8.934798699999999538e-01 8.425917699999999622e-01 7.187808900000000056e-01 6.073924600000000229e-01 6.588580400000000337e-01 6.499845100000000153e-01 6.235306800000000038e-01 5.327937099999999759e-01 5.441249999999999698e-01 6.305442999999999465e-01 4.758208199999999777e-01 5.190335999999999839e-01 5.046504699999999621e-01 4.156448099999999757e-01 3.988269899999999923e-01 3.890759400000000090e-01 3.914664299999999764e-01 3.233090399999999920e-01 2.477191699999999885e-01 2.351987899999999909e-01 3.202189200000000180e-01 2.030248400000000120e-01 9.043615800000000260e-02 2.190475799999999917e-01 1.672107499999999913e-01 4.670181100000000279e-02 2.595831200000000005e-01 5.135819799999999935e-01 6.281709399999999555e-01 5.982225300000000301e-01 3.586698899999999912e-01 3.382937400000000094e-01 2.693559500000000106e-01 -5.959632400000000434e-03 -1.713146000000000081e-04 -6.288473899999999506e-02 -1.648550300000000135e-01 -1.926083899999999904e-01 -1.325882999999999923e-01 -1.607266499999999987e-01 -2.059363800000000022e-01 -2.874414800000000270e-01 -2.279825099999999993e-01 -1.527019099999999963e-01 -2.886506799999999928e-01 -2.463889400000000007e-01 -1.795849700000000104e-01 -1.859060399999999946e-01 -6.848125800000000318e-02
1.000000000000000000e+00 1.670401999999999942e+00 3.074513200000000168e+00 3.230077000000000087e+00 3.017615900000000018e+00 1.392299799999999976e+00 4.882482799999999790e-01 1.554701700000000075e+00 1.631428199999999995e+00 1.353163499999999964e+00 1.742333200000000026e+00 1.103019799999999995e+00 5.169015500000000152e-02 -2.357202399999999975e-01 -3.824519200000000008e-01 -5.839022099999999771e-01 -6.425343700000000213e-01 -7.097171399999999686e-01 -8.073235100000000219e-01 -9.461762900000000309e-01 -1.003569200000000050e+00 -1.025630999999999959e+00 -1.117585499999999898e+00 -1.264555199999999990e+00 -1.295105699999999915e+00 -1.317100600000000066e+00 -1.489459000000000088e+00 -1.589107499999999895e+00 -1.685648500000000105e+00 -1.729122800000000071e+00 -1.802702400000000038e+00 -1.868144500000000097e+00 -1.733013899999999996e+00 -1.647151000000000032e+00 -1.541644800000000037e+00 -1.335299900000000095e+00 -1.013833500000000054e+00 -7.010348800000000269e-01 -4.962226000000000137e-01 -1.326703300000000030e-01 1.919403799999999938e-01 3.294522699999999915e-01 4.988388999999999740e-01 7.283270099999999969e-01 8.004370899999999622e-01 7.337191800000000264e-01 7.397683099999999845e-01 8.084052800000000039e-01 7.132424499999999723e-01 6.239914800000000428e-01 5.733101099999999839e-01 5.316212500000000452e-01 5.351008499999999612e-01 4.826201199999999858e-01 4.763409800000000249e-01 4.971923799999999893e-01 4.829424800000000073e-01 4.396704699999999799e-01 4.865474900000000269e-01 4.513975199999999965e-01 3.154542599999999863e-01 3.337585200000000030e-01 2.602648000000000184e-01 2.572534699999999841e-01 2.352271999999999974e-01 1.707271499999999942e-01 2.117945800000000101e-01 1.360943099999999961e-01 6.273662300000000525e-02 -3.378730600000000132e-03 7.426110499999999393e-02 -1.751933400000000099e-02 -6.123603899999999906e-02 1.863312500000000038e-01 3.547784099999999885e-01 4.463314099999999840e-01 3.705152299999999732e-01 2.643284200000000084e-01 1.550914499999999918e-01 -5.850775099999999673e-02 -1.549759500000000012e-01 -1.916286799999999957e-01 -2.079379799999999945e-01 -3.302762699999999829e-01 -4.367230799999999857e-01 -3.813883399999999924e-01 -3.424115300000000195e-01 -4.408454299999999826e-01 -3.945805299999999849e-01 -3.636789699999999903e-01 -3.842996499999999926e-01 -3.447402700000000153e-01 -3.683447599999999933e-01 -2.691587100000000232e-01 -3.278390500000000207e-01 -2.287973299999999932e-01 1.353898600000000008e-01
1.000000000000000000e+00 4.377922300000000044e-01 6.736790299999999565e-01 2.364132899999999982e+00 3.299659000000000120e+00 1.859236700000000075e+00 7.802331500000000419e-01 -6.269515100000000452e-01 -8.182907600000000059e-01 3.465792699999999948e-01 3.919359399999999827e-01 -4.202266600000000019e-02 -8.284389699999999968e-02 2.779513100000000070e-02 -8.243168300000000004e-01 -9.794314899999999602e-01 -8.378958800000000373e-01 -1.138005600000000062e+00 -9.564567000000000485e-01 -1.126016600000000034e+00 -1.179861700000000013e+00 -1.246801400000000060e+00 -1.469843699999999975e+00 -1.507001599999999941e+00 -1.583511200000000008e+00 -1.531423800000000002e+00 -2.040941999999999812e+00 -2.208374200000000176e+00 -1.771898600000000101e+00 -1.970991699999999902e+00 -2.182446699999999851e+00 -2.041637099999999982e+00 -1.996640500000000040e+00 -1.781377599999999894e+00 -1.488199400000000061e+00 -1.186104999999999965e+00 -7.836773299999999498e-01 -7.083199900000000104e-01 -3.216504299999999872e-01 3.585676099999999811e-01 3.162876399999999810e-01 5.025906900000000066e-01 8.610958100000000170e-01 7.364696099999999968e-01 9.981045499999999793e-01 1.034395200000000070e+00 7.954656599999999633e-01 9.706077100000000124e-01 8.834446599999999927e-01 8.228948999999999847e-01 6.106730299999999501e-01 6.598737199999999969e-01 6.468402100000000265e-01 4.611026999999999765e-01 7.708363999999999772e-01 4.637735499999999789e-01 5.085800499999999502e-01 6.233069500000000263e-01 5.974250300000000236e-01 4.486704200000000142e-01 5.846085600000000548e-01 5.590379199999999660e-01 2.890418100000000101e-01 7.199154199999999726e-01 4.375712399999999724e-01 2.432128799999999924e-01 5.395331300000000274e-01 1.920385400000000076e-01 3.673145400000000227e-01 3.517963000000000062e-01 2.810920700000000272e-01 3.226241000000000247e-01 2.453581200000000129e-01 2.776227000000000000e-01 4.998087999999999975e-01 8.281795400000000473e-01 7.327431899999999887e-01 1.022104300000000077e+00 1.032272400000000090e+00 5.137263199999999586e-01 3.928690799999999816e-01 3.380104700000000073e-01 3.564367399999999741e-01 4.766228799999999710e-02 7.581897499999999679e-02 -1.460282799999999999e-02 9.376654199999999439e-02 4.586536299999999927e-02 3.162555599999999911e-01 -1.218203600000000025e-01 -2.702947800000000123e-01 3.935805900000000079e-01 3.322708600000000290e-02 3.372167899999999746e-02 1.550872600000000046e-01 3.198766000000000109e-02 2.337133999999999878e-01
1.000000000000000000e+00 1.624386899999999967e+00 2.953397900000000131e+00 2.697424700000000009e+00 2.697235000000000049e+00 1.067554499999999962e+00 2.103697800000000062e-01 1.157593000000000094e+00 1.378915200000000008e+00 9.947477799999999704e-01 9.482063899999999546e-01 7.818699399999999855e-01 -3.697883699999999774e-01 -5.235455300000000367e-01 -4.484951899999999880e-01 -9.929978600000000100e-01 -8.425554499999999836e-01 -1.063202500000000050e+00 -1.069317199999999968e+00 -1.163305999999999951e+00 -1.305915900000000018e+00 -1.157297900000000102e+00 -1.208914499999999892e+00 -1.369813900000000029e+00 -1.461097899999999949e+00 -1.488156800000000057e+00 -1.716204000000000063e+00 -1.780474499999999960e+00 -1.776549799999999957e+00 -1.786943600000000076e+00 -1.895047499999999996e+00 -2.009183000000000163e+00 -1.908906400000000003e+00 -1.641721599999999892e+00 -1.593561800000000028e+00 -1.473591600000000001e+00 -1.089412100000000105e+00 -7.675150200000000478e-01 -4.788426599999999755e-01 -4.158977999999999807e-03 2.516776000000000013e-01 4.361553499999999972e-01 8.011989200000000366e-01 6.698610499999999579e-01 8.188560700000000470e-01 9.384138800000000336e-01 1.003802700000000048e+00 8.509803999999999702e-01 7.549487599999999965e-01 7.736617099999999470e-01 6.459369499999999542e-01 7.054310299999999589e-01 6.591912699999999958e-01 6.283296900000000518e-01 6.096532599999999746e-01 5.233953999999999551e-01 5.771543900000000171e-01 4.590125999999999928e-01 3.840768299999999802e-01 5.827829900000000007e-01 3.909299299999999810e-01 3.114734599999999798e-01 4.196449400000000218e-01 3.605903300000000145e-01 3.936901500000000165e-01 2.706248099999999934e-01 2.057089599999999963e-01 2.896933500000000161e-01 1.991990600000000111e-01 1.385458199999999862e-01 2.085937099999999877e-01 2.301764199999999927e-01 7.426463799999999393e-02 1.975760000000000016e-01 3.414016599999999957e-01 5.192582700000000218e-01 7.087106300000000081e-01 5.395546700000000140e-01 2.973226099999999872e-01 3.460212100000000235e-01 1.490011900000000056e-01 -1.618135400000000057e-01 6.781520000000000603e-02 -7.562518399999999807e-02 -3.265822400000000236e-01 -9.821792599999999707e-02 -5.146901100000000201e-02 -1.968616400000000044e-01 -3.302978999999999776e-01 -1.718037900000000118e-01 -1.360793999999999893e-01 -3.042100099999999752e-01 -1.723491699999999960e-01 -1.177717900000000012e-01 -1.455121299999999895e-01 1.444549599999999934e-01 2.846369499999999997e-01
1.000000000000000000e+00 -1.697994700000000079e-01 1.136997000000000035e+00 2.290547099999999947e+00 2.537607099999999782e+00 1.625323800000000096e+00 -1.852939899999999918e-01 -1.429092699999999994e+00 -8.760786699999999483e-01 -1.267873599999999878e-01 -3.012341299999999888e-01 -3.511966000000000254e-01 -5.517144899999999463e-01 -5.317011900000000457e-01 -6.404037399999999991e-01 -1.157410499999999898e+00 -1.099804999999999922e+00 -1.190169199999999927e+00 -1.358228500000000061e+00 -1.161153000000000102e+00 -1.653841499999999964e+00 -1.559670700000000076e+00 -1.087475699999999934e+00 -1.650338199999999977e+00 -1.902678799999999892e+00 -1.653511200000000070e+00 -1.752444899999999972e+00 -1.833109600000000006e+00 -1.904826600000000036e+00 -2.090719500000000064e+00 -1.764838700000000093e+00 -1.729223399999999966e+00 -1.910245699999999935e+00 -1.607018899999999917e+00 -1.197287999999999908e+00 -1.265061800000000014e+00 -9.910360599999999964e-01 -3.414592799999999762e-01 1.717350299999999969e-02 9.195454599999999812e-02 1.532001900000000139e-01 4.377197199999999788e-01 5.480638399999999688e-01 8.550713100000000289e-01 8.282628800000000346e-01 8.575554199999999572e-01 1.093318900000000093e+00 7.802119800000000271e-01 7.176609400000000250e-01 8.187624999999999487e-01 6.991701299999999453e-01 6.728332799999999780e-01 6.260975600000000529e-01 5.333632299999999660e-01 5.471225400000000461e-01 7.568194000000000310e-01 6.599876999999999549e-01 4.979927800000000238e-01 5.383947000000000038e-01 6.644234999999999447e-01 7.093089299999999486e-01 7.082978599999999458e-01 5.433098100000000041e-01 5.184753500000000015e-01 7.767509700000000405e-01 6.708145500000000094e-01 4.319272200000000006e-01 6.091516799999999732e-01 6.387012399999999479e-01 5.935246499999999870e-01 6.804107000000000349e-01 3.823751899999999759e-01 6.050371100000000446e-01 8.894474300000000389e-01 6.943233599999999450e-01 1.161429800000000068e+00 1.042393099999999961e+00 8.142718899999999982e-01 1.079552199999999962e+00 5.350274099999999811e-01 3.347426800000000147e-01 7.230872200000000305e-01 3.702480599999999900e-01 -3.849120300000000161e-02 4.209772700000000145e-01 3.600587299999999935e-01 9.523671000000000220e-02 8.965657000000000487e-02 9.597934099999999580e-02 2.182664699999999902e-01 1.955496399999999968e-01 1.308047099999999907e-01 5.824536400000000086e-02 2.284018600000000121e-01 1.478652199999999917e-01 9.181865100000000113e-02 4.322434800000000132e-01
1.000000000000000000e+00 -4.559919599999999740e-01 -6.561447700000000438e-01 -5.270058100000000190e-01 -5.364332000000000544e-01 -6.413012399999999946e-01 -4.413758199999999743e-01 -2.941695100000000229e-01 -7.251179599999999503e-01 -1.148263299999999987e+00 -1.132359600000000022e+00 -1.130849200000000110e+00 -1.169539000000000106e+00 -1.026305199999999918e+00 -1.105437299999999956e+00 -1.414824400000000093e+00 -1.333224699999999929e+00 -9.832042699999999913e-01 -1.047709599999999908e+00 -1.457983599999999935e+00 -1.639814099999999941e+00 -1.586984200000000067e+00 -1.612571399999999988e+00 -1.625786200000000070e+00 -1.541183900000000051e+00 -1.561368700000000054e+00 -1.653089199999999925e+00 -1.676434900000000061e+00 -1.662668999999999953e+00 -1.534045499999999951e+00 -1.382241899999999912e+00 -1.524317300000000097e+00 -1.716023499999999924e+00 -1.449582200000000043e+00 -9.890133899999999922e-01 -8.717478100000000119e-01 -8.775354100000000157e-01 -5.860560599999999898e-01 -2.683667499999999873e-01 -2.106981800000000127e-01 -9.471786799999999673e-02 1.583724999999999994e-01 2.419452099999999939e-01 3.309391899999999942e-01 6.542172200000000437e-01 7.898238899999999729e-01 5.583067900000000527e-01 5.359457600000000488e-01 8.590170400000000095e-01 8.710312300000000452e-01 5.691393700000000333e-01 6.298991999999999924e-01 8.316921400000000242e-01 6.493963000000000374e-01 5.306752399999999925e-01 6.562237499999999946e-01 5.356294000000000333e-01 4.128132199999999807e-01 5.963809899999999997e-01 5.666211300000000284e-01 2.970427800000000063e-01 3.062077699999999902e-01 3.656287400000000076e-01 1.432908099999999907e-01 1.166214200000000034e-01 5.403692900000000021e-01 8.037205400000000388e-01 6.382405199999999779e-01 6.358245700000000333e-01 9.747459200000000434e-01 1.110315099999999999e+00 9.907769499999999896e-01 1.066363299999999903e+00 1.300922200000000029e+00 1.362183399999999933e+00 1.292552200000000040e+00 1.255823499999999981e+00 1.183135800000000071e+00 1.079682500000000100e+00 1.082031299999999918e+00 1.090906900000000013e+00 1.007937300000000036e+00 1.003608599999999962e+00 1.053806900000000102e+00 1.031077699999999986e+00 1.093912699999999960e+00 1.138880499999999962e+00 9.066435299999999753e-01 7.122941499999999593e-01 7.897245999999999988e-01 8.619112100000000387e-01 9.299330799999999675e-01 9.717086700000000521e-01 8.476297600000000099e-01 7.760057999999999678e-01 9.153889800000000188e-01 6.365694899999999601e-01
1.000000000000000000e+00 2.395328800000000147e+00 3.283697099999999924e+00 2.918598400000000037e+00 2.279072399999999998e+00 1.393210099999999896e+00 5.920436199999999927e-01 4.400347400000000075e-02 1.102760500000000005e-01 1.982125399999999926e-01 -1.156377700000000078e-02 2.342359899999999981e-02 2.307394000000000112e-01 2.655383499999999786e-01 -1.275829199999999920e-02 -5.450978100000000159e-01 -6.798762900000000498e-01 -6.883485700000000485e-01 -8.859658799999999834e-01 -7.651421499999999654e-01 -7.420301099999999650e-01 -8.942314500000000388e-01 -8.409670299999999488e-01 -9.446448499999999804e-01 -1.027777200000000057e+00 -8.763005000000000377e-01 -9.433797400000000222e-01 -1.144614100000000079e+00 -1.212390700000000043e+00 -1.365603600000000029e+00 -1.473826499999999928e+00 -1.437621800000000061e+00 -1.615066799999999914e+00 -1.757909500000000014e+00 -1.803779100000000080e+00 -1.886200499999999947e+00 -1.715757500000000046e+00 -1.662275100000000005e+00 -1.755991599999999986e+00 -1.545277400000000023e+00 -1.349527700000000108e+00 -1.172708899999999943e+00 -8.531967499999999482e-01 -6.956543400000000377e-01 -6.153026000000000328e-01 -4.028940899999999825e-01 -2.311611500000000097e-01 -1.383158100000000078e-02 2.121769699999999925e-01 1.526159699999999897e-01 3.436329200000000084e-01 5.765558200000000522e-01 4.415715299999999899e-01 5.686066100000000123e-01 4.861060600000000065e-01 4.524498800000000265e-01 8.493017000000000483e-01 4.719012100000000154e-01 2.979768099999999809e-01 6.532687799999999934e-01 1.710348200000000041e-01 -6.773943100000000272e-02 3.677623899999999946e-01 4.151512500000000272e-01 2.795493399999999795e-01 3.192302699999999827e-01 3.897313099999999975e-01 3.686199800000000137e-01 4.466273700000000235e-01 6.243058400000000008e-01 6.319603400000000093e-01 7.689374100000000434e-01 1.058238100000000070e+00 1.076122400000000034e+00 1.121251199999999892e+00 1.344251800000000108e+00 1.249992900000000073e+00 1.046634700000000029e+00 1.093165900000000024e+00 9.159854200000000501e-01 5.352395399999999581e-01 5.336782700000000101e-01 4.941456300000000024e-01 2.363526800000000094e-02 -7.423436799999999502e-02 2.912740600000000013e-01 2.496659400000000029e-01 -4.905106199999999944e-02 -9.908477999999999730e-02 2.799087199999999998e-02 1.413532999999999873e-01 8.564995899999999773e-02 5.304289200000000294e-03 1.498751899999999915e-01 1.035099899999999962e-01 7.265964900000000670e-02 2.159416899999999917e-01
1.000000000000000000e+00 8.302751099999999829e-01 1.574039200000000083e+00 2.030800699999999903e+00 1.909093399999999940e+00 1.258924200000000049e+00 5.026859799999999767e-01 -1.439510999999999985e-01 1.725240799999999963e-01 5.979687900000000278e-01 4.260830099999999843e-01 6.592268999999999490e-01 6.961517400000000189e-01 4.817783999999999955e-01 1.682141799999999909e-01 -5.836334499999999981e-01 -7.656831800000000188e-01 -9.588558299999999646e-01 -9.671206500000000261e-01 -7.563202999999999454e-01 -9.316500699999999968e-01 -1.217712899999999987e+00 -1.283449999999999980e+00 -1.285570799999999902e+00 -1.437184599999999923e+00 -1.574063100000000048e+00 -1.640007100000000051e+00 -1.654103799999999902e+00 -1.838437799999999900e+00 -2.138908999999999949e+00 -2.204810499999999784e+00 -2.248467300000000169e+00 -2.304626900000000145e+00 -2.231648299999999807e+00 -2.108856400000000075e+00 -1.953122800000000048e+00 -1.874271000000000020e+00 -1.570892699999999920e+00 -1.233341500000000091e+00 -1.035173499999999969e+00 -5.547367800000000404e-01 -3.305591700000000133e-01 -1.968516499999999891e-01 2.420148900000000103e-01 3.705077399999999743e-01 4.138390200000000019e-01 5.840125000000000455e-01 6.383101100000000416e-01 6.535635300000000036e-01 5.849602699999999489e-01 5.918630000000000280e-01 6.705684699999999721e-01 6.741951900000000553e-01 6.566894800000000476e-01 5.867214600000000280e-01 5.385455000000000103e-01 6.080858900000000178e-01 7.097068699999999897e-01 6.056837600000000155e-01 6.380042299999999500e-01 6.887106800000000195e-01 5.069570700000000096e-01 6.468559900000000473e-01 6.022591000000000472e-01 5.298962200000000289e-01 5.359890299999999774e-01 4.724798599999999738e-01 5.625293999999999572e-01 4.995732500000000242e-01 6.312533799999999751e-01 5.507414999999999949e-01 5.764368399999999504e-01 6.160123899999999653e-01 5.417364900000000150e-01 7.776295199999999630e-01 8.639661499999999883e-01 8.442195900000000197e-01 8.226171899999999981e-01 6.627547099999999691e-01 6.299684599999999524e-01 3.905783800000000028e-01 2.733049000000000173e-01 2.822574299999999758e-01 1.912519799999999881e-01 4.753681900000000238e-01 3.138664099999999846e-01 1.632867299999999910e-01 1.825351100000000004e-01 1.480136599999999913e-01 3.577673000000000103e-01 3.530260399999999854e-01 2.082106300000000076e-01 2.275538500000000020e-01 3.380578900000000275e-01 2.807529500000000011e-01 5.200706299999999782e-01 6.804858299999999582e-01
1.000000000000000000e+00 9.593066399999999883e-01 2.248693799999999854e+00 3.659096799999999927e+00 2.826003399999999832e+00 2.248551200000000083e+00 8.641853000000000451e-01 -1.000385599999999986e+00 2.088612400000000036e-01 4.535526799999999858e-01 5.370042000000000426e-01 2.546724100000000157e-01 -1.303784600000000050e-02 6.873947700000000438e-01 -6.488381500000000024e-01 8.093409399999999809e-02 -6.844703800000000449e-01 -1.072997600000000107e+00 -3.886738299999999979e-01 -1.156124799999999953e+00 -9.179100199999999932e-01 -9.371896499999999852e-01 -1.188349499999999948e+00 -7.104367799999999900e-01 -1.620668500000000067e+00 -1.454922000000000049e+00 -7.318862699999999499e-01 -1.562758700000000056e+00 -1.576009999999999911e+00 -1.515407299999999902e+00 -1.536761800000000067e+00 -1.820293799999999962e+00 -1.619300799999999985e+00 -1.339999900000000022e+00 -1.237441400000000025e+00 -1.239921700000000016e+00 -7.401942900000000325e-01 -6.427135800000000065e-01 -1.364176000000000000e-01 2.828076400000000268e-01 -1.588033299999999926e-01 7.339242499999999447e-01 5.874406500000000086e-01 8.319131600000000404e-01 8.871380700000000008e-01 7.516806499999999502e-01 1.256308100000000039e+00 8.738966500000000526e-01 9.430319000000000340e-01 1.147077799999999925e+00 9.050337999999999994e-01 3.132630299999999979e-01 8.055573000000000317e-01 9.210955299999999957e-01 4.158029300000000150e-01 1.327231499999999897e+00 4.678950499999999790e-01 9.203217900000000284e-01 4.565236400000000083e-01 6.309055500000000372e-01 9.587362999999999857e-01 6.968562499999999549e-01 3.641720800000000091e-01 8.271844499999999600e-01 4.136838400000000249e-01 2.080711100000000036e-01 7.585964800000000174e-01 6.610448300000000554e-02 4.514197999999999822e-01 1.866906600000000083e-01 4.399408799999999786e-01 1.498024000000000022e-01 9.872771099999999578e-02 2.759986600000000068e-01 2.254286600000000029e-01 5.853816400000000364e-01 -7.478513500000000258e-02 4.858584400000000025e-01 6.510264000000000051e-01 -2.041651700000000069e-01 6.266804500000000555e-02 -5.573536100000000548e-01 -2.341816899999999979e-01 -1.114777899999999933e-01 -8.609127399999999541e-01 -6.098923699999999615e-01 -5.219069499999999806e-01 -6.500754499999999991e-01 -9.338157299999999550e-01 -7.029411800000000543e-01 -6.585643100000000416e-01 -7.491785100000000197e-01 -4.562737199999999937e-01 -9.454919099999999910e-01 -8.144899399999999678e-01 -7.683472500000000371e-01 -8.876849599999999674e-01
1.000000000000000000e+00 6.702521399999999963e-01 2.450649400000000089e+00 3.681584500000000038e+00 2.474445699999999970e+00 1.919591400000000059e+00 7.708298199999999434e-02 -9.783363099999999868e-01 3.386129800000000079e-01 1.647402099999999980e-01 -2.864259000000000110e-01 -1.410464300000000004e-01 -8.048688299999999518e-02 -4.015599899999999778e-01 -6.381384100000000448e-01 -5.603382300000000482e-01 -7.313920000000000421e-01 -8.206234500000000320e-01 -1.013194900000000009e+00 -1.030315899999999951e+00 -9.337214999999999820e-01 -1.206707299999999927e+00 -1.283233899999999927e+00 -1.162683899999999992e+00 -1.388491200000000036e+00 -1.543079899999999949e+00 -1.566151400000000082e+00 -1.711147200000000090e+00 -1.741654400000000047e+00 -1.813632300000000086e+00 -1.837614599999999987e+00 -1.993282500000000068e+00 -1.815027399999999957e+00 -1.982633799999999891e+00 -1.705124899999999943e+00 -1.346520200000000056e+00 -1.259030000000000094e+00 -7.718869999999999898e-01 -4.763791600000000237e-01 -1.033110000000000001e-01 2.651171099999999892e-01 4.164563499999999752e-01 6.593666500000000541e-01 1.004098099999999993e+00 9.266161099999999928e-01 1.012874199999999947e+00 8.887277500000000385e-01 9.062940999999999914e-01 1.021766299999999905e+00 7.184112000000000275e-01 6.724336499999999939e-01 7.192277500000000545e-01 7.434890199999999449e-01 6.808554799999999574e-01 6.376798599999999873e-01 6.602029699999999446e-01 5.753891799999999446e-01 7.541312500000000307e-01 5.567517600000000400e-01 9.183642199999999534e-01 5.730323099999999892e-01 3.007362700000000277e-01 6.847617799999999866e-01 6.364760200000000312e-01 4.379779500000000048e-01 4.152414799999999961e-01 5.038205199999999939e-01 1.590084900000000023e-01 3.382707300000000195e-01 5.180905900000000175e-01 4.517583900000000235e-02 1.858119599999999982e-01 1.494340600000000074e-01 2.014008300000000029e-01 4.445978099999999822e-01 5.463435599999999503e-01 8.038807700000000223e-01 7.510659499999999822e-01 5.374257099999999454e-01 3.942816100000000046e-01 1.888087900000000041e-01 1.622360999999999942e-01 2.183497200000000110e-02 -1.160946999999999951e-01 7.739909100000000319e-02 -5.800741699999999688e-03 -2.299196200000000120e-02 -1.845658599999999983e-01 1.011933700000000047e-01 -1.643616099999999913e-01 -1.102013800000000016e-01 -1.687788400000000133e-01 -3.035866400000000187e-01 2.670585699999999951e-01 -2.703503700000000065e-01 -3.341354400000000058e-01 4.346195299999999762e-02
1.000000000000000000e+00 1.037971399999999988e+00 1.321589600000000031e+00 1.464064699999999997e+00 2.059559999999999835e+00 2.769764100000000173e+00 3.075673899999999961e+00 2.689239800000000180e+00 2.064981200000000072e+00 1.541637200000000041e+00 1.006118700000000032e+00 2.958916300000000166e-01 -1.498276400000000119e-01 -4.150400499999999659e-02 1.143918099999999965e-01 -8.050517100000000037e-02 -2.085682000000000091e-01 4.787464000000000303e-02 1.927123799999999887e-01 -1.385831399999999936e-01 -4.696740400000000148e-01 -4.750856399999999757e-01 -5.040832899999999617e-01 -6.447543799999999603e-01 -6.356239599999999879e-01 -5.831773399999999885e-01 -6.365428800000000331e-01 -6.686644299999999763e-01 -7.329924799999999463e-01 -9.107857599999999998e-01 -9.907053099999999501e-01 -9.587149999999999839e-01 -1.086078899999999958e+00 -1.295365199999999994e+00 -1.263331299999999935e+00 -1.136554199999999959e+00 -1.296540900000000107e+00 -1.549527199999999993e+00 -1.508378500000000066e+00 -1.409838399999999936e+00 -1.557506300000000010e+00 -1.688276899999999969e+00 -1.616261799999999971e+00 -1.545337299999999914e+00 -1.533500300000000038e+00 -1.474450700000000003e+00 -1.399049900000000068e+00 -1.356140600000000029e+00 -1.292786800000000014e+00 -1.153580899999999909e+00 -9.592758000000000118e-01 -7.975277100000000008e-01 -7.112003500000000367e-01 -6.088544299999999465e-01 -3.797177700000000100e-01 -1.213933499999999971e-01 -6.269594700000000187e-02 -1.021896600000000016e-01 8.311080099999999804e-02 3.267852600000000218e-01 2.869256499999999765e-01 2.014604999999999868e-01 2.889745200000000125e-01 3.121897399999999934e-01 2.890041199999999755e-01 3.542363599999999724e-01 3.289139600000000052e-01 3.296793399999999874e-01 5.501110500000000458e-01 6.008890900000000146e-01 4.068353200000000003e-01 4.719819900000000179e-01 6.744003200000000531e-01 5.563422099999999482e-01 3.478762300000000085e-01 3.756662700000000243e-01 5.280094499999999913e-01 6.746496300000000002e-01 7.285920900000000255e-01 6.789910799999999691e-01 7.049534400000000423e-01 7.481070899999999746e-01 5.805229299999999926e-01 3.796871499999999733e-01 3.692697899999999867e-01 3.903639199999999754e-01 3.866838200000000114e-01 4.946024399999999765e-01 6.014233300000000337e-01 5.563129599999999675e-01 4.736046899999999948e-01 4.780912500000000231e-01 4.483299299999999876e-01 4.416209700000000016e-01 5.247029399999999510e-01 6.327630100000000146e-01 4.470180100000000212e-01
1.000000000000000000e+00 1.598220599999999880e-01 1.242015899999999951e+00 2.244613800000000214e+00 1.931784100000000004e+00 1.481620500000000007e+00 -1.282230099999999984e-01 -3.074969799999999753e-01 5.641316199999999448e-01 2.876039600000000057e-02 9.970477599999999496e-02 8.940736400000000306e-02 -5.137988000000000000e-01 -7.374860500000000041e-01 -7.357462599999999853e-01 -8.807587799999999634e-01 -9.118911499999999837e-01 -9.915557999999999872e-01 -1.071281699999999892e+00 -1.156295199999999967e+00 -1.234650800000000048e+00 -1.294205400000000061e+00 -1.460263099999999925e+00 -1.577577199999999902e+00 -1.595919000000000088e+00 -1.685364000000000084e+00 -1.874328599999999900e+00 -1.933282500000000015e+00 -1.991897999999999946e+00 -2.182269600000000143e+00 -2.172873300000000008e+00 -2.217218799999999934e+00 -2.130385099999999809e+00 -1.977381099999999892e+00 -1.880177399999999999e+00 -1.595850100000000049e+00 -1.306853400000000054e+00 -9.617259500000000516e-01 -5.012974000000000041e-01 -2.246208700000000003e-01 -3.018072299999999784e-03 3.272661599999999726e-01 4.857234799999999852e-01 5.461041100000000315e-01 6.054910399999999804e-01 5.359486999999999446e-01 6.627033399999999741e-01 5.303948000000000551e-01 4.711537900000000167e-01 5.362476800000000043e-01 4.303284499999999735e-01 4.224524499999999794e-01 3.897102700000000253e-01 4.624417000000000111e-01 3.951853499999999908e-01 3.211290900000000059e-01 4.828425299999999920e-01 4.368903900000000173e-01 3.865586500000000036e-01 4.107270399999999877e-01 4.250815900000000092e-01 3.428272700000000173e-01 3.791595600000000066e-01 5.202476299999999609e-01 4.326349800000000023e-01 3.627491800000000044e-01 4.520736399999999988e-01 5.559652499999999664e-01 5.541033899999999734e-01 4.843398400000000215e-01 5.497629299999999830e-01 6.402362299999999617e-01 5.902806499999999623e-01 5.794220700000000113e-01 7.209535299999999536e-01 9.605264199999999919e-01 1.011690200000000095e+00 1.073923799999999984e+00 1.107305299999999937e+00 8.733686499999999686e-01 7.560364800000000107e-01 7.143796799999999614e-01 6.544293100000000418e-01 5.645484699999999689e-01 4.765597200000000200e-01 5.805974699999999489e-01 5.569790100000000521e-01 4.698088200000000159e-01 3.969433700000000176e-01 5.418849700000000214e-01 5.601433200000000001e-01 5.362592299999999756e-01 5.606472399999999912e-01 5.797891299999999859e-01 5.787472399999999961e-01 6.941346699999999537e-01 7.159935400000000394e-01
