-1.000000000000000000e+00 8.757601799999999992e-01 1.060283400000000098e+00 1.166090899999999930e+00 1.571562200000000020e+00 2.150446300000000033e+00 2.423791899999999888e+00 2.293134699999999970e+00 1.979638299999999962e+00 1.537276599999999993e+00 9.530715199999999498e-01 3.633867100000000017e-01 -3.009181999999999829e-02 -7.774631399999999692e-02 3.565734699999999896e-02 -9.194884700000000022e-02 -3.741064399999999845e-01 -4.246329300000000195e-01 -2.826667700000000116e-01 -1.808280999999999916e-01 -2.285017400000000087e-01 -4.388266200000000006e-01 -5.802700100000000027e-01 -5.244897899999999558e-01 -5.272902499999999604e-01 -6.575813400000000142e-01 -7.166284600000000227e-01 -7.815786799999999701e-01 -9.668266899999999886e-01 -1.044113099999999905e+00 -9.623181499999999833e-01 -1.069908499999999929e+00 -1.374460100000000073e+00 -1.491350900000000035e+00 -1.495120800000000028e+00 -1.668501000000000012e+00 -1.815334000000000003e+00 -1.817251399999999961e+00 -1.883337700000000003e+00 -1.952867899999999990e+00 -1.894562700000000044e+00 -1.840150600000000081e+00 -1.806429499999999910e+00 -1.688399200000000100e+00 -1.556156000000000095e+00 -1.499153900000000039e+00 -1.417809499999999945e+00 -1.166967700000000052e+00 -8.230767300000000342e-01 -6.060404499999999528e-01 -5.078833000000000375e-01 -3.323795099999999891e-01 -7.774631399999999692e-02 7.947109300000000653e-02 1.135241099999999975e-01 1.541877000000000109e-01 2.035522100000000112e-01 2.108447800000000094e-01 3.088103700000000007e-01 4.530292100000000155e-01 3.990264800000000167e-01 3.474660399999999760e-01 5.228944899999999896e-01 6.422910099999999956e-01 6.567113900000000060e-01 6.423058799999999957e-01 4.248467699999999847e-01 3.474660399999999760e-01 5.943356499999999931e-01 4.957230699999999879e-01 1.541877000000000109e-01 2.634574800000000216e-01 4.659991800000000128e-01 4.118921600000000072e-01 4.655385499999999954e-01 5.487788599999999795e-01 4.634330500000000130e-01 4.144686200000000098e-01 3.957768300000000239e-01 3.474660399999999760e-01 3.820094399999999779e-01 4.764025199999999960e-01 6.567113900000000060e-01 8.808456500000000355e-01 8.765732999999999997e-01 7.469079499999999872e-01 6.959909300000000076e-01 5.626919900000000307e-01 4.892034900000000186e-01 6.211569900000000199e-01 6.498633999999999800e-01 7.211374999999999869e-01 9.287881999999999527e-01 7.595622199999999546e-01 5.665148300000000248e-01 8.618435500000000138e-01 8.615456000000000225e-01
-1.000000000000000000e+00 1.873640600000000100e+00 2.187446700000000188e+00 1.508784399999999914e+00 1.978017200000000031e+00 1.796238299999999954e+00 6.773858600000000063e-01 -1.484297599999999939e-01 -5.395731499999999459e-01 -7.587289400000000184e-01 -9.017548300000000072e-01 -9.598788400000000109e-01 -1.177324899999999896e+00 -1.250140400000000040e+00 -1.260726800000000036e+00 -1.376507799999999948e+00 -1.435504899999999973e+00 -1.446245299999999956e+00 -1.623719099999999971e+00 -1.788704099999999908e+00 -1.726299100000000086e+00 -1.844608299999999979e+00 -2.062615500000000157e+00 -2.149622899999999781e+00 -2.245507899999999779e+00 -2.187274700000000127e+00 -2.086368400000000012e+00 -2.007689699999999799e+00 -1.956556699999999926e+00 -1.577226800000000040e+00 -1.174263000000000057e+00 -9.571838599999999975e-01 -4.956719800000000120e-01 -4.879090900000000036e-02 2.133615799999999951e-01 4.389171099999999992e-01 5.379448000000000008e-01 6.608785600000000038e-01 8.857814200000000415e-01 9.189283499999999494e-01 7.720663100000000334e-01 7.393264999999999976e-01 9.237248099999999518e-01 7.537785799999999758e-01 6.024030000000000218e-01 6.154591200000000262e-01 6.686015699999999784e-01 8.272685199999999517e-01 5.791618200000000494e-01 5.322522899999999613e-01 6.763227899999999515e-01 6.366678300000000457e-01 5.580013099999999726e-01 5.122431600000000307e-01 6.178619199999999534e-01 4.937290999999999763e-01 5.958735499999999741e-01 5.713098800000000477e-01 2.817505900000000230e-01 4.794925600000000121e-01 4.869602699999999729e-01 4.036260099999999795e-01 3.445218099999999839e-01 4.362195999999999851e-01 3.490220800000000123e-01 2.667504099999999934e-01 2.422949899999999879e-01 3.568040800000000234e-01 3.238612699999999789e-01 2.124204100000000039e-01 2.893071600000000076e-01 3.630068200000000078e-01 7.108065900000000159e-01 8.078800200000000320e-01 6.833120999999999778e-01 6.557907400000000386e-01 5.851870700000000314e-01 5.821671400000000274e-01 3.049428599999999823e-01 1.958739999999999926e-01 1.948846499999999926e-01 1.819973900000000089e-01 1.120193000000000022e-01 4.481022800000000056e-02 2.384771900000000056e-01 7.287273399999999457e-02 1.747891599999999990e-01 9.553019899999999620e-02 1.348507300000000020e-01 1.868001699999999876e-01 8.502369799999999478e-02 2.216373700000000002e-01 9.991332499999999728e-02 1.559067500000000106e-01 1.496174100000000062e-01 3.956211400000000239e-02 2.828507299999999947e-01
-1.000000000000000000e+00 2.286023800000000161e+00 2.436652200000000157e+00 2.352995500000000018e+00 -3.418808600000000086e-01 -1.350982200000000022e+00 -1.575890400000000025e+00 -1.642891199999999996e+00 -1.982533799999999902e+00 -2.071550300000000178e+00 -2.261594099999999941e+00 -2.445408599999999932e+00 -2.432136799999999877e+00 -2.644313900000000217e+00 -2.626435900000000156e+00 -2.543108099999999983e+00 -2.370738699999999977e+00 -1.841652599999999973e+00 -1.325395099999999937e+00 -4.918260700000000041e-01 9.382497200000000648e-02 5.134108800000000139e-01 1.009326699999999910e+00 1.120899799999999891e+00 1.162598699999999985e+00 1.061718200000000056e+00 9.200311899999999987e-01 8.432668300000000228e-01 7.148846399999999601e-01 7.096995799999999965e-01 6.997287300000000210e-01 5.956866600000000345e-01 5.616258100000000031e-01 5.584799900000000372e-01 6.685938099999999551e-01 3.786044800000000210e-01 3.626197899999999974e-01 4.419583699999999893e-01 1.911016799999999960e-01 2.752102000000000159e-01 1.726944900000000060e-01 8.412128500000000397e-02 1.782250900000000027e-01 2.229029399999999869e-02 1.115915100000000049e-01 1.266932199999999953e-01 -2.758139399999999866e-02 1.493604400000000110e-01 2.205777399999999874e-02 1.214121100000000036e-01 1.930257900000000026e-01 8.660136200000000117e-02 2.296465199999999929e-01 8.296869599999999456e-02 1.583322000000000063e-01 1.420589800000000014e-01 5.801504400000000172e-02 3.547274899999999787e-02 -2.317361999999999894e-03 1.178491799999999978e-01 1.238766200000000067e-02 6.261247699999999972e-02 1.328353999999999924e-01 6.693760399999999777e-02 1.806461299999999881e-01 1.413422099999999959e-01 1.219755200000000039e-01 2.982227000000000072e-01 1.370976799999999995e-01 2.450894299999999970e-01 1.879437499999999928e-01 1.937632400000000032e-01 2.552951099999999918e-01 1.559197900000000025e-01 2.350586500000000079e-01 1.797573799999999944e-01 1.405610499999999929e-01 1.609565199999999918e-01 2.073807099999999959e-01 2.802773499999999807e-01 2.523668000000000022e-01 4.539020100000000224e-01 7.822773600000000327e-01 1.047873700000000019e+00 1.004423099999999902e+00 3.495892199999999783e-01 1.282372699999999865e-01 1.365320299999999987e-01 -1.178907200000000044e-01 1.403367099999999930e-02 7.970219100000000556e-02 -1.277092900000000031e-01 -4.690836200000000379e-03 -1.088178199999999957e-01 6.973817899999999737e-02 3.070902699999999985e-02 5.405419399999999985e-01
-1.000000000000000000e+00 8.145691000000000459e-01 7.704722600000000199e-01 7.560982800000000115e-01 1.382405300000000059e+00 2.307490599999999947e+00 2.659263600000000061e+00 2.267498799999999815e+00 1.732183000000000028e+00 1.420472900000000038e+00 1.028164199999999973e+00 2.941913899999999971e-01 -3.971800899999999857e-01 -5.070651099999999856e-01 -1.202638899999999983e-01 1.655994399999999867e-01 7.959407800000000213e-03 -3.840594500000000244e-01 -6.444107500000000321e-01 -6.233172300000000554e-01 -4.377434399999999837e-01 -2.835605800000000065e-01 -2.492947299999999922e-01 -4.043732600000000121e-01 -8.163954599999999617e-01 -1.206649899999999942e+00 -1.088004900000000053e+00 -6.693809299999999851e-01 -6.667209299999999894e-01 -1.043204299999999973e+00 -1.178005699999999933e+00 -1.064390699999999912e+00 -1.074132599999999993e+00 -1.150000799999999934e+00 -1.121929600000000082e+00 -1.119770799999999955e+00 -1.224162299999999926e+00 -1.338135499999999922e+00 -1.439725600000000050e+00 -1.543984100000000081e+00 -1.601315800000000067e+00 -1.586553700000000067e+00 -1.533147500000000107e+00 -1.434634399999999976e+00 -1.291584499999999913e+00 -1.275017300000000020e+00 -1.489058800000000016e+00 -1.601068699999999900e+00 -1.364901200000000037e+00 -1.179278000000000048e+00 -1.285484599999999977e+00 -1.243638100000000080e+00 -9.035540699999999870e-01 -6.978817499999999674e-01 -6.497292799999999646e-01 -3.761351199999999895e-01 -1.073771999999999921e-02 4.196547999999999945e-02 -3.601109300000000096e-02 1.739978299999999922e-01 4.901125199999999960e-01 5.061639399999999789e-01 4.500671299999999819e-01 6.181433400000000411e-01 6.662215999999999694e-01 5.603278699999999501e-01 8.113711799999999696e-01 1.115377499999999911e+00 8.557837700000000547e-01 5.962876999999999761e-01 8.540447100000000402e-01 9.995810800000000107e-01 8.682949100000000309e-01 9.198129699999999520e-01 8.042988500000000096e-01 3.417900600000000066e-01 3.350516399999999839e-01 7.747490000000000210e-01 7.955351499999999687e-01 5.981111700000000253e-01 7.996237899999999454e-01 9.500201900000000421e-01 6.003125799999999845e-01 2.556441099999999800e-01 3.157522899999999910e-01 4.986792999999999920e-01 5.534060400000000435e-01 5.787617800000000035e-01 6.527767399999999665e-01 6.954544499999999463e-01 6.970928299999999966e-01 7.379346300000000358e-01 7.973778500000000546e-01 8.588961800000000091e-01 9.763223199999999657e-01 9.736424700000000376e-01 6.304390800000000405e-01
-1.000000000000000000e+00 7.956747499999999862e-01 9.502403999999999851e-01 1.146667899999999962e+00 1.749125199999999936e+00 2.425801599999999780e+00 2.670964099999999952e+00 2.462466500000000114e+00 2.067078099999999807e+00 1.623357900000000020e+00 1.088265000000000038e+00 4.832574700000000223e-01 2.906767099999999979e-02 -1.020578199999999935e-01 -4.598572599999999760e-02 -6.718259799999999615e-02 -1.972239399999999865e-01 -2.485563000000000078e-01 -1.677487199999999901e-01 -1.483242200000000066e-01 -2.856019499999999933e-01 -4.043981700000000012e-01 -4.440088699999999999e-01 -5.723218300000000314e-01 -7.424374599999999935e-01 -7.608583300000000271e-01 -7.391388700000000034e-01 -7.970281900000000253e-01 -8.265812200000000054e-01 -8.610322400000000043e-01 -9.244101900000000205e-01 -9.285306500000000129e-01 -1.055829399999999918e+00 -1.342794999999999961e+00 -1.424043200000000065e+00 -1.392532300000000056e+00 -1.614689100000000099e+00 -1.821355899999999917e+00 -1.771449100000000110e+00 -1.812783999999999951e+00 -2.005614500000000078e+00 -1.999401100000000042e+00 -1.815213500000000035e+00 -1.731289099999999914e+00 -1.723169500000000021e+00 -1.595469000000000026e+00 -1.378796899999999992e+00 -1.243186399999999914e+00 -1.127763199999999966e+00 -8.271238300000000043e-01 -4.336748699999999901e-01 -2.435255799999999915e-01 -2.441868799999999951e-01 -1.378612700000000080e-01 1.281914899999999913e-01 2.844956299999999993e-01 2.778856399999999893e-01 3.486918900000000043e-01 4.732595600000000235e-01 4.601937600000000073e-01 4.360408800000000196e-01 4.658740699999999735e-01 3.667782900000000068e-01 2.922577399999999881e-01 4.537656199999999806e-01 5.617358999999999547e-01 4.496683300000000050e-01 3.650202399999999958e-01 3.748596399999999940e-01 3.895831900000000236e-01 4.339058499999999818e-01 4.558179700000000167e-01 4.036327200000000004e-01 3.996002599999999849e-01 4.955939400000000106e-01 5.618397299999999817e-01 5.400009900000000140e-01 5.069879000000000469e-01 4.836520699999999895e-01 4.629459499999999950e-01 5.407127999999999934e-01 7.106402600000000236e-01 7.848302000000000334e-01 7.461910099999999879e-01 7.316131299999999449e-01 6.873316099999999818e-01 5.359090899999999769e-01 4.303212100000000095e-01 4.871072399999999969e-01 5.797413799999999728e-01 5.628337100000000426e-01 4.640931099999999754e-01 4.024679199999999790e-01 4.493048099999999989e-01 5.580822300000000125e-01 5.685785700000000054e-01 4.011768800000000135e-01
-1.000000000000000000e+00 1.876340200000000014e+00 2.094943199999999894e+00 2.009631499999999793e+00 1.211054499999999923e+00 -8.697672100000000128e-01 -1.037897999999999987e+00 -1.506556800000000029e+00 -1.662131199999999920e+00 -1.714499900000000077e+00 -2.058362999999999943e+00 -2.036248200000000175e+00 -2.521803100000000075e+00 -2.584649100000000033e+00 -2.961496299999999859e+00 -3.014451100000000050e+00 -2.954426699999999961e+00 -2.533932099999999910e+00 -1.970974400000000015e+00 -1.255962900000000104e+00 -4.383820600000000178e-01 4.971385600000000071e-02 7.113861900000000293e-01 8.496851199999999604e-01 9.884616400000000302e-01 9.656812900000000255e-01 8.755336200000000124e-01 7.609107800000000088e-01 7.694120800000000537e-01 6.535227599999999804e-01 6.526819699999999447e-01 5.750756399999999990e-01 5.225663000000000391e-01 5.359249000000000374e-01 4.670714799999999833e-01 4.201402100000000139e-01 4.571947199999999989e-01 3.243248599999999926e-01 3.379596599999999951e-01 3.906504199999999982e-01 3.135152700000000126e-01 3.300965100000000096e-01 2.871487600000000029e-01 2.319442899999999974e-01 2.863796599999999803e-01 2.258303399999999905e-01 2.460945200000000110e-01 2.595449300000000070e-01 2.343366400000000127e-01 2.898841200000000229e-01 2.160683599999999871e-01 2.085919300000000087e-01 1.745976599999999879e-01 1.547819300000000120e-01 2.462470400000000004e-01 2.111776099999999878e-01 1.584211100000000039e-01 2.358675500000000091e-01 2.190489100000000133e-01 2.540491500000000014e-01 2.715550600000000148e-01 1.601354999999999862e-01 1.919521700000000053e-01 2.254269200000000029e-01 1.801020399999999910e-01 3.086517500000000025e-01 1.100422999999999957e-01 2.212078600000000062e-01 1.875478100000000092e-01 1.040249699999999944e-01 2.217490599999999978e-01 1.125893200000000066e-01 1.593447199999999953e-01 1.580950999999999884e-01 1.494020500000000085e-01 2.392778499999999864e-01 1.822712300000000063e-01 1.365123000000000031e-01 2.251165900000000053e-01 1.508085799999999976e-01 2.213713300000000050e-01 2.305217699999999870e-01 3.121368600000000160e-01 6.896420699999999959e-01 6.872679600000000111e-01 6.739281999999999773e-01 4.825697700000000090e-01 1.573679699999999959e-01 3.684197000000000166e-02 1.057733500000000021e-01 4.610805800000000038e-02 -2.453439500000000246e-04 9.561114599999999408e-02 -7.676154899999999837e-02 1.863146300000000088e-01 9.371214899999999459e-02 2.000752899999999890e-01
-1.000000000000000000e+00 5.189252300000000151e-01 5.762432499999999846e-01 6.482603900000000197e-01 9.802319499999999630e-01 1.583571199999999957e+00 2.040982300000000027e+00 2.051616199999999779e+00 1.894276000000000071e+00 1.917972699999999975e+00 1.921265299999999954e+00 1.550601799999999919e+00 9.344859899999999886e-01 4.648026299999999944e-01 2.559421700000000244e-01 1.816496999999999973e-01 1.368140300000000031e-01 7.146321599999999608e-02 -1.464125599999999919e-03 1.256959499999999938e-02 1.523925999999999892e-01 2.687403099999999823e-01 1.873956099999999902e-01 -9.704970899999999789e-02 -4.204751500000000197e-01 -6.072798499999999544e-01 -6.210564100000000032e-01 -5.951932399999999568e-01 -6.532326200000000416e-01 -7.392873899999999887e-01 -7.756338099999999791e-01 -8.339227799999999746e-01 -9.744463899999999956e-01 -1.059621300000000099e+00 -9.835022399999999720e-01 -9.030332199999999698e-01 -9.690020599999999984e-01 -1.105541099999999943e+00 -1.197819699999999932e+00 -1.266629999999999923e+00 -1.338057000000000052e+00 -1.399539899999999948e+00 -1.480322499999999986e+00 -1.575247300000000017e+00 -1.605956699999999904e+00 -1.579802799999999952e+00 -1.609417000000000098e+00 -1.701248400000000105e+00 -1.743374600000000108e+00 -1.705955300000000063e+00 -1.632276800000000083e+00 -1.531491099999999994e+00 -1.419390099999999988e+00 -1.337757700000000050e+00 -1.252245499999999900e+00 -1.098270599999999986e+00 -9.269429399999999930e-01 -7.950055000000000316e-01 -6.406808699999999579e-01 -4.227568600000000121e-01 -2.362977800000000128e-01 -1.325292999999999888e-01 -1.944190000000000154e-02 1.466379100000000102e-01 2.839528099999999999e-01 3.449122199999999916e-01 4.218208199999999852e-01 5.673360600000000309e-01 6.926395100000000138e-01 7.207217700000000393e-01 7.265764700000000298e-01 7.952722899999999928e-01 8.533880400000000144e-01 8.287201800000000285e-01 8.070182399999999978e-01 8.741894900000000135e-01 9.170623700000000156e-01 8.116960800000000420e-01 6.848622100000000268e-01 7.425235199999999924e-01 9.111403200000000036e-01 9.042397399999999585e-01 6.743633700000000175e-01 4.988882099999999986e-01 5.424710299999999652e-01 6.408867799999999892e-01 6.349421200000000542e-01 5.936634400000000422e-01 6.030175599999999525e-01 6.218101299999999609e-01 6.172651500000000402e-01 6.158168699999999607e-01 6.455911600000000528e-01 7.301131899999999675e-01 8.291556900000000008e-01 7.928101300000000018e-01 5.624924100000000537e-01
-1.000000000000000000e+00 1.323793900000000079e+00 1.991427499999999906e+00 2.338680800000000115e+00 2.349508699999999894e+00 1.874969399999999897e+00 1.135543799999999992e+00 2.088553499999999952e-01 1.683870500000000103e-01 9.347691900000000276e-01 1.070184100000000083e+00 7.500061999999999562e-01 7.337359599999999649e-01 9.304080900000000209e-01 7.090598900000000260e-01 -5.952309100000000019e-02 -5.966539699999999780e-01 -6.903393700000000077e-01 -7.653469099999999914e-01 -8.498961299999999719e-01 -9.090954100000000482e-01 -1.045917800000000009e+00 -1.124639100000000003e+00 -1.117796400000000023e+00 -1.184084499999999984e+00 -1.238833899999999932e+00 -1.275476700000000019e+00 -1.336701700000000104e+00 -1.347224299999999930e+00 -1.379439599999999988e+00 -1.424293699999999996e+00 -1.429427900000000085e+00 -1.506032500000000107e+00 -1.509614699999999976e+00 -1.281391500000000017e+00 -1.215676900000000060e+00 -1.406890699999999939e+00 -1.449344399999999977e+00 -1.371223000000000081e+00 -1.281669299999999900e+00 -1.227082400000000018e+00 -1.279739100000000018e+00 -1.277554000000000078e+00 -1.241842799999999913e+00 -1.151218000000000075e+00 -9.417795199999999811e-01 -7.573132399999999986e-01 -5.168618299999999666e-01 -2.475356099999999893e-01 -4.372117400000000154e-02 1.223604100000000028e-01 1.120738500000000026e-01 5.716552800000000017e-02 1.371966699999999928e-01 2.308119600000000105e-01 3.468551200000000168e-01 4.803717900000000207e-01 5.295454000000000550e-01 5.522305600000000370e-01 5.945206200000000551e-01 6.016363500000000419e-01 6.044300400000000018e-01 5.847237100000000076e-01 5.099592400000000358e-01 4.692730500000000249e-01 4.232030800000000093e-01 3.850504100000000096e-01 3.673398900000000022e-01 2.609144199999999802e-01 1.970223600000000075e-01 1.772930400000000128e-01 1.403494899999999934e-01 1.803007899999999886e-01 1.528887200000000057e-01 7.364390699999999457e-02 6.350919700000000334e-02 4.854647499999999866e-02 6.517807700000000093e-02 7.186985299999999743e-02 2.600705600000000062e-02 3.970713100000000315e-03 -8.008074000000000442e-03 2.775057800000000144e-02 1.949344700000000055e-02 -2.827032700000000134e-02 -2.055748199999999845e-02 -1.822160000000000099e-02 2.350309100000000095e-01 5.150233800000000306e-01 1.113588400000000034e+00 2.195602000000000054e+00 2.070730600000000088e+00 1.652956199999999987e+00 1.949440599999999968e+00 1.302099099999999954e+00 7.412470899999999974e-01 6.437046499999999893e-01
-1.000000000000000000e+00 1.564396300000000073e+00 1.748219699999999932e+00 7.747463799999999567e-01 1.254460200000000025e+00 8.999754100000000312e-01 -3.756773600000000157e-01 -7.908061800000000252e-01 -1.193132300000000035e+00 -1.164659000000000111e+00 -1.186718900000000021e+00 -1.406284499999999937e+00 -1.413805200000000095e+00 -1.641138800000000009e+00 -1.545819999999999972e+00 -1.584510300000000038e+00 -1.743762999999999952e+00 -1.958624099999999979e+00 -1.894328800000000035e+00 -1.907702699999999973e+00 -2.000648099999999818e+00 -2.072283600000000003e+00 -2.159368800000000199e+00 -2.197821400000000036e+00 -2.219224200000000202e+00 -2.010189700000000190e+00 -1.946269999999999945e+00 -1.554477300000000062e+00 -1.221472099999999950e+00 -1.161273199999999894e+00 -6.103519600000000267e-01 -2.298573700000000053e-01 7.074199999999999933e-02 1.481066699999999958e-01 4.468145199999999928e-01 6.410144500000000134e-01 7.724851999999999830e-01 6.435684799999999983e-01 7.562841799999999726e-01 8.495279700000000211e-01 6.758581200000000067e-01 7.649007700000000076e-01 7.514964100000000036e-01 7.194708300000000056e-01 7.134417199999999459e-01 6.275647600000000548e-01 6.296380299999999597e-01 6.911720300000000483e-01 7.085527799999999932e-01 6.261044199999999949e-01 6.643263299999999649e-01 5.859680299999999731e-01 7.174028099999999464e-01 6.141754600000000064e-01 5.259719099999999870e-01 6.307470499999999758e-01 5.583585800000000487e-01 6.281242900000000295e-01 5.932168899999999967e-01 5.135225500000000221e-01 5.999567599999999779e-01 5.914013599999999871e-01 4.525094299999999903e-01 4.718717800000000184e-01 5.868449100000000529e-01 4.844754600000000244e-01 5.413176400000000443e-01 4.143672700000000098e-01 5.247203700000000470e-01 4.998266399999999887e-01 7.155479300000000542e-01 7.754404400000000086e-01 8.559710000000000374e-01 8.482225899999999985e-01 7.758578999999999892e-01 6.971798999999999635e-01 4.293369799999999792e-01 3.987630300000000183e-01 3.741081600000000229e-01 3.919637200000000155e-01 1.396620299999999926e-01 2.366247700000000120e-01 3.036292899999999961e-01 3.394104600000000249e-01 1.372829600000000094e-01 1.686083399999999954e-01 2.160924999999999929e-01 2.573152400000000006e-01 1.900001000000000051e-01 2.737274100000000043e-01 2.866359199999999885e-01 1.104523899999999975e-01 1.682660199999999884e-01 2.182302799999999987e-01 2.350649499999999947e-01 4.698446700000000198e-01 4.993231699999999829e-01
-1.000000000000000000e+00 1.249714200000000108e+00 8.657038299999999520e-01 -1.211491199999999990e-01 -5.005106000000000277e-01 -6.579509199999999947e-01 -1.352706200000000081e+00 -1.825511600000000012e+00 -1.972309599999999996e+00 -1.986560000000000104e+00 -2.044117400000000195e+00 -2.423560699999999901e+00 -2.485892699999999955e+00 -2.297928199999999865e+00 -2.674229299999999920e+00 -2.623037399999999852e+00 -2.292587300000000106e+00 -1.921434400000000098e+00 -1.534964299999999948e+00 -7.797943400000000302e-01 -9.891004200000000357e-02 2.475372899999999932e-01 7.107343999999999884e-01 8.690218899999999635e-01 1.053862800000000099e+00 9.925888800000000067e-01 4.765367200000000247e-01 8.220985200000000548e-01 3.764406699999999772e-01 3.333432299999999904e-01 5.273057899999999965e-01 4.566265299999999749e-01 3.301826999999999956e-01 3.344539000000000262e-01 2.074113900000000010e-01 2.262463899999999917e-01 2.661006200000000030e-02 1.427831400000000028e-01 -1.040857499999999977e-02 -5.076321400000000095e-02 -6.400377899999999676e-02 -5.710338899999999746e-02 -1.088122600000000079e-02 -8.662459499999999868e-02 -7.281668800000000441e-02 -1.035480199999999976e-02 -1.546919800000000067e-01 7.186702899999999894e-02 -6.186087500000000267e-02 1.825182200000000088e-02 1.738632499999999970e-01 -4.062869599999999887e-02 1.041644500000000056e-01 1.370772299999999944e-01 5.756657400000000230e-02 1.560406300000000135e-01 6.599629599999999596e-02 1.152193900000000049e-01 1.706730999999999943e-01 1.059814399999999962e-01 3.072555900000000229e-01 6.998698899999999945e-02 1.613719100000000073e-01 2.254547000000000079e-01 5.888223900000000288e-02 1.700553800000000060e-01 2.830457900000000193e-01 5.153209499999999998e-02 3.315731599999999779e-01 3.099233499999999863e-01 1.935299099999999994e-01 3.417017900000000052e-01 2.846337600000000134e-01 3.844947400000000015e-01 2.915829300000000179e-01 3.924264000000000085e-01 5.763087000000000071e-01 3.840309900000000165e-01 6.774163800000000402e-01 7.774821499999999830e-01 9.585547300000000215e-01 7.469376399999999583e-01 6.259115899999999622e-01 2.816752100000000092e-01 3.946828000000000003e-01 2.183337599999999878e-01 3.300633199999999934e-01 2.172123499999999985e-01 1.716191800000000101e-01 2.761786900000000045e-01 2.071129600000000126e-01 4.720051800000000242e-01 1.399625799999999920e+00 3.349600899999999992e+00 2.705593299999999868e+00 2.716689600000000149e-01 -1.120768800000000037e-01
-1.000000000000000000e+00 1.023578400000000110e+00 1.478541600000000011e+00 2.206047400000000103e+00 2.826309100000000019e+00 2.476264200000000137e+00 1.674356600000000084e+00 1.088425399999999987e+00 4.325428299999999893e-01 -1.502337800000000112e-01 -3.205430899999999750e-01 -4.241353299999999771e-01 -5.352570800000000517e-01 -4.661937999999999915e-01 -5.081119600000000291e-01 -7.150846199999999486e-01 -7.323213200000000533e-01 -5.519333400000000500e-01 -3.456477199999999916e-01 -2.482389700000000032e-01 -4.428386500000000003e-01 -7.450303700000000529e-01 -7.639479900000000212e-01 -6.187151199999999518e-01 -6.455169400000000390e-01 -7.367324499999999832e-01 -6.540283599999999753e-01 -5.079711599999999772e-01 -5.708421599999999874e-01 -8.341408599999999840e-01 -9.802265799999999585e-01 -8.739737499999999937e-01 -8.012685099999999894e-01 -1.002500600000000075e+00 -1.290860700000000083e+00 -1.400127700000000086e+00 -1.449302599999999996e+00 -1.614194099999999965e+00 -1.659866199999999958e+00 -1.485065300000000033e+00 -1.482790000000000052e+00 -1.674533899999999909e+00 -1.704158999999999979e+00 -1.695133999999999919e+00 -1.728444899999999951e+00 -1.523118100000000030e+00 -1.296263200000000060e+00 -1.283233599999999974e+00 -1.110069900000000054e+00 -8.313030500000000433e-01 -7.975180899999999573e-01 -6.610482300000000144e-01 -2.756062400000000023e-01 -1.415717700000000134e-01 -2.435561499999999990e-01 -1.501872099999999877e-01 1.421047800000000139e-01 3.872813500000000242e-01 3.503591600000000028e-01 7.887863999999999987e-02 5.121694200000000141e-02 3.305272100000000157e-01 4.179008399999999956e-01 3.228563300000000247e-01 3.609601299999999902e-01 3.843764199999999964e-01 3.413453100000000129e-01 4.352662800000000054e-01 5.084703099999999809e-01 4.163727899999999926e-01 4.204812600000000233e-01 5.885911799999999916e-01 6.647192400000000445e-01 6.169953999999999716e-01 6.210272799999999593e-01 6.899465000000000181e-01 7.108672799999999903e-01 6.688789600000000224e-01 6.622387199999999474e-01 7.626811799999999586e-01 9.678782900000000300e-01 1.196983600000000036e+00 1.251995200000000086e+00 1.026558599999999988e+00 8.331550199999999684e-01 9.932879799999999593e-01 1.160336000000000034e+00 9.428604600000000113e-01 7.259833799999999560e-01 8.662279499999999688e-01 1.060843600000000109e+00 1.078550600000000026e+00 9.780748400000000009e-01 8.598958300000000277e-01 9.278555699999999629e-01 1.014300699999999944e+00 6.481916599999999473e-01
-1.000000000000000000e+00 -2.943311699999999753e-01 -6.775512999999999675e-01 -1.234181299999999926e+00 -1.494215099999999907e+00 -7.485007900000000269e-01 -5.426066200000000395e-01 -7.110501799999999761e-01 -9.443480800000000341e-01 -1.172303000000000095e+00 -9.288228800000000174e-01 -1.006711499999999981e+00 -9.196484299999999612e-01 -1.226755400000000051e+00 -1.350605400000000067e+00 -1.520487200000000039e+00 -1.537083900000000058e+00 -1.908970999999999973e+00 -2.204729500000000009e+00 -1.822405499999999900e+00 -2.282220399999999927e+00 -2.257803700000000191e+00 -2.215573500000000084e+00 -1.969663500000000012e+00 -1.592587600000000103e+00 -1.551556500000000005e+00 -8.758165399999999767e-01 -8.742252000000000356e-01 -4.563610100000000114e-01 4.557108699999999901e-01 -9.106099400000000621e-02 3.811731199999999764e-01 6.164967599999999770e-01 4.634912199999999816e-01 7.327425199999999528e-01 6.244493700000000036e-01 6.190480600000000111e-01 6.440682599999999480e-01 5.490092500000000042e-01 6.798341799999999546e-01 6.893392799999999987e-01 5.149412199999999773e-01 7.238726699999999958e-01 2.410565699999999978e-01 9.069058800000000531e-01 1.054047799999999979e+00 4.230979400000000057e-01 6.505201099999999848e-01 5.132135199999999786e-01 7.215047799999999567e-01 6.203647300000000309e-01 9.995605699999999816e-01 3.374564700000000084e-01 5.458045200000000152e-01 8.667263200000000500e-01 3.558954500000000021e-01 5.011266100000000279e-01 3.469325400000000115e-01 4.791123999999999938e-01 3.398858699999999788e-01 2.356571600000000044e-01 3.944226599999999805e-01 7.085437100000000488e-01 2.053381900000000038e-01 2.582031499999999924e-01 6.247042000000000428e-01 4.112572700000000081e-01 5.121413799999999794e-01 5.129103900000000493e-01 9.597348500000000282e-01 8.822961000000000276e-01 6.851135499999999601e-01 6.602599799999999686e-01 6.242806400000000533e-01 4.635403599999999846e-01 2.140287700000000071e-01 2.436335699999999937e-01 1.858818499999999874e-01 3.423703499999999900e-01 3.612971500000000113e-01 8.530272899999999381e-02 2.813941699999999990e-01 4.788169899999999979e-01 -3.992160499999999890e-01 3.119059499999999874e-01 7.495852899999999597e-01 -2.522334099999999912e-01 3.424082500000000251e-01 3.854985300000000059e-01 1.203324000000000060e+00 2.490660000000000096e+00 2.277227299999999843e+00 1.977348099999999942e+00 1.207813100000000084e+00 2.015670599999999923e-01 -8.893552000000000124e-01 -1.122873900000000091e+00
-1.000000000000000000e+00 -1.010174200000000022e+00 -8.647034000000000109e-01 -7.659572999999999521e-01 -1.081906800000000057e+00 -7.949815599999999760e-01 -5.873993400000000475e-01 -9.370077599999999673e-01 -9.577903500000000125e-01 -9.830555600000000505e-01 -1.184367200000000064e+00 -1.091682000000000041e+00 -1.179599899999999923e+00 -1.275934899999999983e+00 -1.236348999999999920e+00 -1.388999700000000059e+00 -1.429849499999999995e+00 -1.420143099999999992e+00 -1.572876200000000058e+00 -1.692345100000000047e+00 -1.682844699999999971e+00 -1.754543900000000045e+00 -1.966665600000000014e+00 -1.953500400000000026e+00 -1.690684400000000087e+00 -1.633996199999999899e+00 -1.838451099999999894e+00 -1.772038500000000072e+00 -1.295652500000000096e+00 -1.116578000000000070e+00 -1.167093699999999901e+00 -8.493090500000000098e-01 -5.903350200000000436e-01 -4.105990899999999999e-01 -5.845525699999999658e-02 1.496703600000000023e-01 2.629775300000000149e-01 3.522054299999999860e-01 4.189950499999999800e-01 3.477221999999999813e-01 3.267577199999999737e-01 6.374012500000000303e-01 6.742842599999999686e-01 5.933016500000000137e-01 7.143127000000000226e-01 6.227585799999999505e-01 6.224624600000000507e-01 7.146860400000000224e-01 6.194030400000000158e-01 6.242392799999999520e-01 7.321249399999999463e-01 7.424086500000000033e-01 6.469456900000000177e-01 6.031000800000000384e-01 7.161031500000000216e-01 8.120344299999999738e-01 7.801561900000000271e-01 7.898966099999999990e-01 8.224502000000000201e-01 7.866377399999999742e-01 8.511606900000000531e-01 9.518687500000000412e-01 9.311528199999999922e-01 9.278707499999999664e-01 9.908766900000000044e-01 1.013978599999999952e+00 1.058383700000000038e+00 1.142066400000000037e+00 1.063063400000000103e+00 8.104803499999999605e-01 6.545734699999999906e-01 6.544612899999999733e-01 5.766066600000000486e-01 4.495691299999999835e-01 4.499897800000000059e-01 4.825191500000000078e-01 4.820483300000000249e-01 4.331812999999999914e-01 3.749049099999999801e-01 4.025314400000000181e-01 3.908804499999999904e-01 3.286029799999999890e-01 3.586081500000000144e-01 3.782300800000000240e-01 3.443416499999999991e-01 3.758260700000000121e-01 3.853842599999999785e-01 4.683717600000000258e-01 7.520980499999999624e-01 1.241570000000000062e+00 1.985970900000000094e+00 2.221731399999999912e+00 1.594100400000000084e+00 9.466063999999999590e-01 3.703360199999999880e-01 -2.875186499999999867e-01 -4.335923700000000047e-01
-1.000000000000000000e+00 5.622481999999999758e-01 1.248226300000000011e+00 2.138522000000000034e+00 3.397909600000000196e+00 2.489336799999999794e+00 2.136209299999999978e+00 1.594417699999999938e+00 1.048025199999999962e-01 1.800432100000000091e-01 3.796186300000000124e-01 2.018527400000000027e-01 7.789685600000000043e-02 -8.825661699999999554e-02 -4.634328400000000125e-01 -8.728829999999999645e-01 -7.492051100000000075e-01 -7.470111999999999863e-01 -1.006388700000000025e+00 -1.112170199999999998e+00 -1.216159299999999943e+00 -1.284584500000000018e+00 -1.334359899999999932e+00 -1.401273999999999909e+00 -1.411471700000000107e+00 -1.377734800000000037e+00 -1.686067800000000005e+00 -1.764828499999999911e+00 -1.655993400000000060e+00 -1.859943399999999913e+00 -2.022940600000000089e+00 -1.959702099999999891e+00 -1.937834400000000068e+00 -1.868898100000000007e+00 -1.781456200000000045e+00 -1.672871100000000055e+00 -1.183342700000000081e+00 -7.366731699999999883e-01 -4.811648900000000117e-01 -2.196074299999999924e-01 1.564008000000000065e-01 5.075282700000000036e-01 8.140737200000000007e-01 6.763784299999999750e-01 8.547923299999999891e-01 9.323154299999999450e-01 8.718064899999999895e-01 9.537993099999999558e-01 7.771612700000000151e-01 8.242127399999999993e-01 6.020634999999999737e-01 5.450334700000000199e-01 6.750705700000000364e-01 6.792822600000000266e-01 6.222242199999999945e-01 4.025280099999999917e-01 5.709353900000000426e-01 5.320980400000000499e-01 6.303746900000000153e-01 3.160900099999999768e-01 3.375448400000000126e-01 3.899561000000000277e-01 4.990011699999999939e-01 3.192542400000000224e-01 4.047004299999999999e-01 3.833224900000000157e-01 2.122565700000000055e-01 2.111445999999999878e-01 1.473780899999999894e-01 2.844233400000000245e-01 3.609960400000000180e-01 3.056699099999999891e-01 8.723933799999999961e-02 3.380844900000000153e-01 7.069506700000000032e-01 5.925458900000000195e-01 7.090844099999999983e-01 3.990667700000000151e-01 2.902093700000000220e-01 4.802176499999999959e-01 1.813703399999999910e-01 8.051569699999999719e-02 2.996763499999999941e-02 2.697031800000000007e-02 -6.352220299999999931e-02 1.821981799999999874e-02 -1.956963700000000084e-01 1.746585399999999941e-02 -2.678251800000000168e-02 -3.196201799999999760e-01 1.418454100000000016e-02 -1.875811300000000126e-01 -3.843286800000000197e-02 -1.214286900000000058e-01 -1.585763500000000048e-01 -3.593941399999999939e-03 -2.715037200000000039e-01
-1.000000000000000000e+00 2.680213999999999874e+00 2.865276099999999992e+00 2.872975199999999951e+00 3.281072200000000105e+00 2.576091599999999815e+00 1.375943700000000103e+00 4.239985299999999846e-01 -2.224967899999999998e-01 -4.834341200000000227e-01 -6.360090699999999542e-01 -7.412990799999999991e-01 -8.088686499999999668e-01 -9.749896399999999907e-01 -1.071207699999999985e+00 -1.149548000000000014e+00 -1.168848600000000015e+00 -1.245945700000000045e+00 -1.261959899999999912e+00 -1.385887499999999939e+00 -1.307117599999999991e+00 -1.499671699999999941e+00 -1.509228199999999909e+00 -1.649609899999999962e+00 -1.726555300000000015e+00 -1.560882099999999939e+00 -1.657196799999999914e+00 -1.577688600000000108e+00 -1.430405200000000043e+00 -1.287016600000000066e+00 -1.026684799999999953e+00 -7.160726899999999562e-01 -4.503757400000000244e-01 -1.232019399999999959e-01 2.286665099999999895e-01 3.145131600000000138e-01 5.008424599999999893e-01 6.957426100000000391e-01 7.572510799999999653e-01 7.578776900000000483e-01 8.537453600000000087e-01 8.641455099999999501e-01 7.970326100000000302e-01 7.921413699999999558e-01 6.755679999999999463e-01 6.658950700000000333e-01 6.576735400000000009e-01 6.014815700000000209e-01 5.379361599999999966e-01 5.700020700000000273e-01 5.764771100000000148e-01 5.370699799999999469e-01 6.295890699999999729e-01 6.642699300000000084e-01 7.312564700000000473e-01 6.803034000000000026e-01 8.191132100000000360e-01 8.941175300000000492e-01 5.304939499999999919e-01 6.136989999999999945e-01 6.190899300000000105e-01 6.098185400000000200e-01 3.836721300000000001e-01 2.000511799999999951e-01 -3.625964000000000270e-02 -4.969381999999999966e-02 -2.091296000000000127e-02 -1.470202899999999979e-01 -1.452670100000000020e-01 -2.278335499999999958e-01 -1.943266300000000002e-01 -2.184622900000000034e-01 -2.942469099999999727e-01 -2.873955599999999944e-01 -2.740141799999999961e-01 -2.531472000000000167e-01 -3.263800499999999771e-01 -2.844175199999999792e-01 -3.247275600000000262e-01 -3.048413300000000214e-01 -3.747101299999999746e-01 -3.942271900000000051e-01 -3.392290900000000109e-01 -2.841831300000000060e-01 -3.468264999999999820e-01 -4.107576900000000086e-01 -3.227920699999999865e-01 -2.692979500000000082e-01 -3.034482600000000252e-01 -2.405915899999999941e-01 -1.601329800000000081e-01 -3.728352000000000055e-02 -5.451752800000000260e-02 -3.683349000000000345e-02 -4.340498899999999799e-02 2.555113299999999810e-01 5.887655400000000316e-01
-1.000000000000000000e+00 1.113684799999999919e+00 1.275951499999999905e+00 1.171769599999999967e+00 1.554550600000000005e+00 2.280557400000000179e+00 2.636614499999999861e+00 2.514624599999999877e+00 2.363169899999999934e+00 2.290844199999999997e+00 1.997703400000000018e+00 1.446090199999999992e+00 8.995849700000000393e-01 4.856399599999999817e-01 2.631332599999999800e-01 2.940648699999999782e-01 3.437633399999999728e-01 1.296812699999999874e-01 -1.371144199999999869e-01 -1.328065300000000060e-01 -2.120320799999999976e-04 9.881770899999999663e-03 -9.606439899999999477e-02 -2.573537799999999764e-01 -4.323670800000000147e-01 -5.132719599999999716e-01 -4.966446299999999758e-01 -5.265074499999999880e-01 -6.298808299999999472e-01 -7.190885599999999878e-01 -7.990517599999999998e-01 -9.278773299999999447e-01 -1.034160500000000038e+00 -1.010181299999999949e+00 -9.569406400000000090e-01 -1.062470100000000084e+00 -1.250001300000000093e+00 -1.319562499999999972e+00 -1.340978999999999921e+00 -1.470328199999999974e+00 -1.599299800000000049e+00 -1.609596800000000050e+00 -1.607511799999999935e+00 -1.649907699999999977e+00 -1.668242800000000026e+00 -1.664939699999999911e+00 -1.620427300000000015e+00 -1.484386900000000065e+00 -1.404518500000000003e+00 -1.487270599999999998e+00 -1.478100399999999981e+00 -1.180331299999999972e+00 -8.455399599999999793e-01 -7.308888999999999525e-01 -7.033779000000000003e-01 -5.648437600000000280e-01 -3.551623799999999997e-01 -1.865452999999999972e-01 -5.382374300000000028e-02 7.348765499999999895e-02 1.509264300000000003e-01 1.891447699999999899e-01 2.518387699999999896e-01 2.853803300000000154e-01 2.481305699999999947e-01 2.898821999999999788e-01 4.407041899999999957e-01 4.710284499999999874e-01 3.861367600000000233e-01 4.223034500000000246e-01 4.957315700000000103e-01 4.363914999999999877e-01 4.145768599999999915e-01 4.679590599999999823e-01 3.414711000000000274e-01 1.435173299999999985e-01 2.051596699999999884e-01 3.815660200000000057e-01 3.973184499999999897e-01 3.862548199999999987e-01 4.887560300000000080e-01 5.937875799999999815e-01 6.413485899999999962e-01 6.104171299999999745e-01 4.341682499999999778e-01 2.507554799999999751e-01 3.020792700000000108e-01 4.843569899999999873e-01 4.740866599999999931e-01 3.238926699999999936e-01 3.872000099999999834e-01 5.759007699999999508e-01 4.261968099999999815e-01 7.752679599999999505e-02 1.485486799999999885e-01 4.796384399999999992e-01 3.586995499999999781e-01
-1.000000000000000000e+00 -1.668193100000000095e+00 -2.053334700000000179e+00 -2.235332300000000050e+00 -2.173837199999999914e+00 -1.741502000000000105e+00 -1.540802199999999900e+00 -1.962965599999999977e+00 -2.238767100000000010e+00 -1.877941000000000082e+00 -1.473191600000000046e+00 -1.422262799999999938e+00 -1.468980500000000022e+00 -1.258710900000000077e+00 -6.735754699999999540e-01 -3.547566999999999804e-01 -9.039807800000000393e-01 -1.295983700000000072e+00 -6.383079299999999678e-01 -2.617472699999999763e-01 -9.238021600000000388e-01 -1.122105499999999978e+00 -5.184317999999999982e-01 -5.031793799999999539e-01 -9.408433999999999964e-01 -8.585709599999999941e-01 -7.224410700000000185e-01 -9.373199199999999731e-01 -9.043492899999999723e-01 -6.273918200000000445e-01 -6.142014799999999664e-01 -8.248672099999999618e-01 -1.052615199999999973e+00 -1.051018500000000078e+00 -6.075091500000000533e-01 -2.293862799999999980e-01 -3.475811400000000106e-01 -4.072456500000000146e-01 -1.711404300000000100e-01 -1.817696199999999929e-01 -2.937623500000000054e-01 9.817839099999999680e-03 2.888470599999999888e-01 1.601020700000000130e-01 2.565301700000000018e-01 7.722568300000000052e-01 9.095780599999999660e-01 4.704870099999999833e-01 2.752629600000000010e-01 7.231565399999999588e-01 1.187049199999999916e+00 1.099543200000000054e+00 7.906147799999999615e-01 7.976095600000000507e-01 9.619543000000000399e-01 9.137565100000000218e-01 8.749797200000000164e-01 1.092557999999999918e+00 1.178337799999999991e+00 9.571734899999999602e-01 8.977043700000000293e-01 1.066853599999999958e+00 1.089097900000000063e+00 1.074982700000000069e+00 1.169170700000000007e+00 1.061420400000000042e+00 8.398926500000000184e-01 9.201939999999999564e-01 1.051361900000000071e+00 8.786697100000000482e-01 7.833005100000000054e-01 1.055517500000000108e+00 1.332017299999999960e+00 1.284924399999999967e+00 9.925857700000000339e-01 7.824995900000000226e-01 8.855665999999999816e-01 9.945236299999999918e-01 7.871941700000000264e-01 6.975160900000000330e-01 1.018713800000000003e+00 1.178677999999999892e+00 9.827267499999999822e-01 8.925048199999999765e-01 7.574349700000000407e-01 3.050755900000000076e-01 9.089364299999999619e-02 2.997361800000000187e-01 3.390009600000000178e-01 2.185764799999999897e-01 3.177844899999999750e-01 3.205211800000000166e-01 2.183141400000000037e-02 3.893154099999999833e-04 4.377836500000000242e-01 5.666974500000000470e-01 -2.925205399999999956e-02
-1.000000000000000000e+00 4.436209099999999794e-01 9.472850299999999724e-01 1.924084399999999917e+00 2.159789700000000146e+00 1.499446800000000080e+00 9.645077600000000473e-01 2.232562300000000000e-01 -4.249455999999999789e-01 1.212786700000000051e-01 8.301971900000000293e-01 7.270480000000000276e-01 6.488296900000000145e-01 7.878772600000000237e-01 6.433457200000000098e-01 4.672917799999999899e-01 3.194818999999999853e-01 -1.781267099999999937e-01 -5.891644900000000407e-01 -5.822640399999999827e-01 -6.566767100000000523e-01 -7.905631699999999817e-01 -7.866091299999999897e-01 -8.467417999999999889e-01 -8.725773100000000504e-01 -8.220196499999999906e-01 -8.633810299999999938e-01 -9.388792200000000143e-01 -9.862038499999999930e-01 -1.014379799999999943e+00 -1.044479799999999958e+00 -1.134152100000000107e+00 -1.234278100000000045e+00 -1.250723400000000041e+00 -1.220270100000000024e+00 -1.228189200000000092e+00 -1.255540099999999937e+00 -1.289032500000000026e+00 -1.349890899999999894e+00 -1.390174599999999927e+00 -1.429302599999999979e+00 -1.521421499999999982e+00 -1.594271200000000110e+00 -1.592704600000000026e+00 -1.481320699999999935e+00 -1.305673400000000095e+00 -1.221590500000000024e+00 -1.105760400000000088e+00 -8.737128699999999748e-01 -7.519887400000000444e-01 -6.724600299999999864e-01 -5.384318900000000241e-01 -5.432974799999999993e-01 -5.881969099999999617e-01 -4.778200200000000120e-01 -3.053499499999999811e-01 -1.138195300000000021e-01 9.923253199999999830e-02 2.177765399999999907e-01 2.385869399999999974e-01 2.908550999999999775e-01 3.778980900000000198e-01 4.343829100000000110e-01 4.723612999999999840e-01 4.664528600000000247e-01 4.276365300000000147e-01 4.162494400000000261e-01 3.982855299999999987e-01 3.763638599999999945e-01 3.430842199999999953e-01 2.718551200000000057e-01 2.539098900000000270e-01 2.501819200000000021e-01 2.026425299999999874e-01 2.461762000000000117e-01 3.006549099999999974e-01 2.169356600000000024e-01 1.625362099999999865e-01 2.191002900000000031e-01 2.334447799999999906e-01 2.108800899999999923e-01 2.606729899999999933e-01 2.806636900000000212e-01 2.801448300000000113e-01 3.222333299999999845e-01 3.151040900000000033e-01 5.397360199999999830e-01 9.005107500000000265e-01 1.278688000000000047e+00 2.317877999999999883e+00 2.916254299999999855e+00 2.211947499999999955e+00 2.034752999999999812e+00 2.071302399999999988e+00 1.254178000000000015e+00 1.037878800000000101e+00 1.009615499999999999e+00
1.000000000000000000e+00 6.919161399999999851e-02 1.279248099999999999e+00 2.731827299999999958e+00 2.871786000000000172e+00 2.305235000000000145e+00 7.795559600000000477e-01 -7.366344700000000412e-01 -1.704037499999999927e-01 5.226759699999999897e-01 2.315435100000000079e-01 3.884757400000000138e-01 2.148153899999999950e-01 -3.225286399999999776e-01 -3.484725799999999762e-01 -7.006076300000000368e-01 -1.097069800000000095e+00 -8.972553800000000468e-01 -8.953438999999999703e-01 -1.318335899999999894e+00 -8.849527200000000260e-01 -1.183783899999999889e+00 -1.663831300000000013e+00 -1.235343599999999986e+00 -1.473490100000000025e+00 -1.749889199999999922e+00 -1.567539299999999969e+00 -1.683351899999999901e+00 -1.994186000000000014e+00 -1.819377699999999987e+00 -1.966010800000000058e+00 -2.214398800000000112e+00 -2.108004499999999837e+00 -1.465117500000000073e+00 -1.560397599999999940e+00 -1.553677200000000092e+00 -1.073068700000000097e+00 -9.455594999999999972e-01 -4.914816499999999921e-01 -3.896058099999999969e-01 -9.255731500000000112e-02 7.296192000000000233e-01 7.392661499999999553e-01 4.455983299999999869e-01 7.589003199999999616e-01 1.237715899999999980e+00 9.607461600000000157e-01 1.040221899999999922e+00 1.084239299999999906e+00 9.385827500000000212e-01 9.023677199999999843e-01 8.321106299999999623e-01 8.422525899999999677e-01 5.354251799999999450e-01 7.319041499999999756e-01 9.593892099999999923e-01 6.362133300000000213e-01 6.060038100000000316e-01 7.045789500000000372e-01 5.561692099999999694e-01 8.111196299999999804e-01 2.939852800000000155e-01 5.650560500000000319e-01 6.936828000000000438e-01 3.395819500000000213e-01 5.840057699999999796e-01 3.974193699999999940e-01 3.700222499999999970e-01 2.895990700000000140e-01 5.883454599999999868e-01 3.441297700000000015e-01 1.147725299999999976e-01 4.347155100000000272e-01 9.293522399999999684e-02 3.448196800000000173e-01 7.190031799999999640e-01 6.568921899999999869e-01 7.538831000000000282e-01 5.819849299999999559e-01 3.733158899999999836e-01 3.228513499999999814e-01 1.099204700000000062e-01 -1.296452300000000002e-01 4.399404199999999709e-02 5.038063899999999790e-02 3.499953799999999671e-02 -8.764722599999999475e-02 -6.246725200000000089e-02 3.092832200000000115e-02 -1.558686999999999989e-01 -2.328192000000000039e-01 -1.289062099999999933e-01 -2.152002999999999902e-02 -7.046177399999999959e-03 -1.189960399999999974e-01 -7.608082100000000680e-02 4.527054999999999968e-02
1.000000000000000000e+00 1.085098300000000071e+00 1.853705900000000018e+00 1.834176400000000040e+00 1.550000499999999892e+00 1.383001799999999948e+00 1.001594700000000060e+00 2.553476599999999763e-01 -3.328644499999999784e-01 -4.442043199999999858e-01 -1.384486299999999892e-01 1.440936399999999916e-02 -2.757600000000000051e-01 -4.348592600000000252e-01 -2.497415299999999894e-01 -2.108580200000000071e-01 -4.642715600000000276e-01 -8.197775899999999449e-01 -1.024560899999999997e+00 -1.003217999999999943e+00 -1.054062499999999902e+00 -1.101269400000000065e+00 -9.946935999999999556e-01 -1.083020199999999988e+00 -1.187902699999999978e+00 -1.111311200000000055e+00 -1.291348500000000010e+00 -1.420341599999999982e+00 -1.187225100000000033e+00 -1.198817900000000103e+00 -1.378513700000000064e+00 -1.352743800000000052e+00 -1.447920199999999991e+00 -1.607854899999999976e+00 -1.589748299999999892e+00 -1.642212699999999970e+00 -1.767195099999999908e+00 -1.754834900000000086e+00 -1.718578200000000056e+00 -1.760528799999999894e+00 -1.716946499999999931e+00 -1.499200400000000100e+00 -1.364595599999999909e+00 -1.375525799999999910e+00 -1.077079700000000084e+00 -5.781047499999999451e-01 -4.926063800000000104e-01 -4.838848299999999880e-01 -1.174602500000000022e-01 1.074883999999999978e-01 1.118302399999999974e-01 2.629313099999999737e-01 4.057693499999999731e-01 4.651197499999999985e-01 5.569600200000000001e-01 5.816137900000000194e-01 5.714327099999999549e-01 6.175628899999999755e-01 6.325473000000000345e-01 6.037294399999999506e-01 5.985228200000000109e-01 5.807563999999999504e-01 5.052519899999999842e-01 4.507339200000000101e-01 4.497057899999999941e-01 4.358984300000000034e-01 4.081032099999999940e-01 3.651197099999999862e-01 3.200278599999999973e-01 3.229825900000000138e-01 3.304910899999999874e-01 3.651334099999999916e-01 4.570895999999999848e-01 4.339399500000000187e-01 3.541065299999999749e-01 5.212617800000000079e-01 8.016965499999999523e-01 8.608668400000000220e-01 8.335901999999999479e-01 9.612024900000000205e-01 1.092691899999999938e+00 1.112146999999999997e+00 1.168798000000000004e+00 1.239327800000000090e+00 1.206669500000000061e+00 1.104152999999999940e+00 9.463778400000000257e-01 8.226706799999999875e-01 8.500580800000000492e-01 9.650062700000000548e-01 1.096255200000000096e+00 1.108142100000000019e+00 9.947436100000000003e-01 1.126314299999999990e+00 1.336454999999999949e+00 9.987835499999999644e-01 3.346971899999999778e-01
1.000000000000000000e+00 1.161959500000000034e+00 7.188968300000000422e-01 3.320698599999999945e-01 1.646413799999999927e+00 6.565845900000000235e-01 -1.645442000000000071e+00 4.172366399999999920e-01 2.842375799999999897e-01 -3.677755899999999856e-01 2.054230999999999974e-01 -4.068466499999999764e-01 -6.469481799999999838e-01 -1.514509899999999964e+00 -4.318598599999999843e-01 -1.799685800000000002e+00 -1.700517800000000079e+00 -7.505344699999999536e-01 -1.286906700000000070e+00 -1.021444199999999913e+00 -1.963738399999999995e+00 -1.226368300000000078e+00 -2.230469300000000210e+00 -2.521835400000000060e+00 -9.145406600000000052e-01 -1.398397099999999948e+00 -1.106551199999999957e+00 -1.554773799999999984e+00 -8.708698299999999559e-01 -4.916106399999999876e-01 6.617695999999999579e-01 -5.285552700000000215e-01 7.840069200000000516e-01 1.660875499999999949e+00 2.687120199999999959e-01 7.573594700000000346e-01 1.796248099999999903e+00 6.984269100000000119e-01 1.203005800000000042e-01 1.218041799999999952e+00 2.626610500000000070e-01 -1.661294399999999893e-01 9.532549299999999448e-01 1.521974699999999903e+00 1.034084299999999956e-01 1.684817100000000067e-01 -1.281652100000000016e-01 4.873586599999999991e-01 3.106157299999999788e-01 6.852142100000000458e-01 2.040508799999999900e-01 -1.764099100000000031e-01 4.643475699999999873e-01 -2.466540999999999872e-01 5.798717599999999583e-01 -4.532237499999999808e-01 -9.431623000000000090e-02 2.784789100000000239e-01 5.013871100000000247e-01 4.979592099999999855e-01 -1.890950999999999882e-01 2.096665500000000071e-01 -1.313645099999999899e-01 1.187133799999999934e-01 -1.222032200000000013e-01 2.774357700000000260e-01 6.720460700000000509e-01 1.560503599999999991e-01 1.264008699999999985e+00 3.378485299999999802e-01 5.190581199999999562e-01 -1.010212399999999983e-01 2.736503100000000077e-01 6.351324999999999887e-01 -5.238476399999999478e-01 -1.413581200000000038e-01 -3.753414600000000156e-01 -1.111560999999999938e-01 -3.641867200000000193e-01 -5.745432499999999498e-01 -1.743900300000000014e-01 -5.625369700000000250e-01 6.339233900000000588e-02 -6.777046300000000301e-01 -4.885065200000000135e-02 -6.855148500000000089e-01 -5.352947200000000016e-01 4.158758499999999914e-01 -8.801808800000000543e-01 -1.198088699999999979e-01 1.803090300000000035e+00 2.995472400000000146e+00 3.097655800000000070e+00 2.038698500000000191e+00 4.185093699999999917e-01 -1.253025099999999892e+00 -4.874285400000000212e-01
1.000000000000000000e+00 1.386340600000000034e-01 2.411976600000000082e-01 2.153236900000000009e+00 2.550770400000000215e+00 1.474817700000000009e+00 5.433588599999999991e-01 -6.157884300000000533e-01 -2.114898699999999965e-01 5.031622999999999513e-01 3.296841999999999828e-01 1.275053800000000015e-01 -5.592882300000000251e-02 -3.761894299999999913e-01 -9.193617899999999565e-01 -8.204903199999999952e-01 -8.866399999999999837e-01 -1.100134799999999968e+00 -1.077561599999999897e+00 -1.123474899999999943e+00 -1.131520199999999976e+00 -1.271825100000000042e+00 -1.269618200000000030e+00 -1.355947999999999931e+00 -1.487049599999999971e+00 -1.463834400000000091e+00 -1.685488300000000050e+00 -1.761423699999999926e+00 -1.942301700000000020e+00 -2.027468299999999779e+00 -1.976321800000000017e+00 -2.225443600000000188e+00 -2.337949399999999844e+00 -2.094505199999999956e+00 -1.956503799999999904e+00 -1.798098600000000102e+00 -1.421432900000000110e+00 -9.694800199999999979e-01 -7.175093900000000247e-01 -3.103011099999999911e-01 2.173140000000000072e-01 4.030130800000000235e-01 6.249999499999999708e-01 7.195793400000000117e-01 8.630427099999999907e-01 8.568677599999999783e-01 7.230850199999999672e-01 8.523137600000000313e-01 8.731367799999999457e-01 5.606220600000000331e-01 5.912601199999999446e-01 8.873473899999999581e-01 7.836602200000000185e-01 7.103523699999999552e-01 7.819680900000000046e-01 7.344729899999999922e-01 8.860418300000000302e-01 8.967024500000000398e-01 7.224544099999999913e-01 8.618591199999999786e-01 8.437672899999999476e-01 7.203860800000000397e-01 6.766729299999999503e-01 6.756456899999999655e-01 6.495702100000000367e-01 5.128947999999999841e-01 5.084448200000000195e-01 4.732174900000000184e-01 3.845143300000000153e-01 4.963513299999999795e-01 5.571945099999999762e-01 4.144144900000000242e-01 4.863619699999999768e-01 5.490009900000000220e-01 6.525613399999999897e-01 7.808000499999999677e-01 9.303921000000000552e-01 9.529920400000000402e-01 6.876384899999999911e-01 6.248330300000000115e-01 5.583059500000000508e-01 3.579273299999999880e-01 2.356621299999999974e-01 2.042856999999999867e-01 2.462394199999999866e-01 9.560355800000000515e-02 2.238896599999999903e-01 1.316054600000000074e-01 8.991038299999999650e-02 1.043861100000000042e-01 4.614156900000000033e-02 1.648557200000000111e-01 -6.474194399999999572e-02 7.992979599999999740e-02 1.628339799999999893e-01 1.250145500000000021e-01 4.391189699999999974e-01
1.000000000000000000e+00 2.311534600000000050e-01 1.522859900000000044e+00 2.956815499999999819e+00 1.594433699999999954e+00 1.646989100000000095e+00 3.859955700000000101e-01 -1.524551699999999954e+00 -2.413154999999999883e-01 6.054337499999999928e-01 1.395273399999999997e-01 2.106032899999999985e-01 4.479262299999999808e-01 -5.763515999999999639e-01 -8.778883499999999840e-01 -7.301161499999999638e-01 -1.408701900000000062e+00 -1.253576199999999918e+00 -1.044241100000000033e+00 -1.422141000000000099e+00 -1.317204199999999936e+00 -1.317773400000000095e+00 -1.537634799999999968e+00 -1.305640200000000029e+00 -1.410175799999999979e+00 -1.875535399999999964e+00 -1.697559700000000005e+00 -1.735788600000000015e+00 -2.012365599999999866e+00 -1.864469600000000060e+00 -1.955646999999999913e+00 -1.792989299999999897e+00 -1.951378099999999893e+00 -1.735130700000000026e+00 -1.517213700000000109e+00 -1.141132199999999930e+00 -1.031068300000000049e+00 -1.074810199999999938e+00 -3.660189600000000043e-01 -2.330705600000000099e-01 2.976904400000000145e-02 3.866585499999999898e-01 4.395942099999999852e-01 6.829375800000000440e-01 8.567973700000000026e-01 9.400020199999999937e-01 8.158145700000000167e-01 1.017692000000000041e+00 1.133242099999999919e+00 7.833496899999999874e-01 8.305287999999999560e-01 8.241039599999999687e-01 7.191756999999999733e-01 7.743754699999999547e-01 5.540637000000000478e-01 6.382709899999999825e-01 7.690052899999999525e-01 5.653950800000000498e-01 7.583921599999999819e-01 6.469086400000000348e-01 6.180178699999999692e-01 8.443276400000000459e-01 5.958848799999999502e-01 7.314200100000000093e-01 6.077121300000000170e-01 6.804788200000000398e-01 7.500554299999999674e-01 1.707185699999999862e-01 5.576318799999999687e-01 5.612502499999999506e-01 4.261737299999999729e-01 5.626024299999999867e-01 3.465004400000000206e-01 8.874752399999999986e-01 7.910887300000000177e-01 9.782597100000000045e-01 1.146637099999999965e+00 5.677652699999999886e-01 5.579827699999999613e-01 5.024052700000000149e-01 3.744293399999999994e-01 2.453397800000000073e-01 1.753621399999999997e-01 5.516642699999999705e-02 3.200290499999999816e-02 8.766914400000000440e-02 -6.039698300000000348e-04 1.530775600000000014e-01 -5.423517399999999711e-02 -4.163729900000000261e-02 1.090581500000000065e-01 -1.516698800000000069e-01 4.555088799999999771e-02 -8.195117600000000058e-02 -2.350128599999999901e-01 2.430869499999999961e-01 2.036537700000000117e-01
1.000000000000000000e+00 -2.850889899999999866e-01 1.234050899999999951e-02 -4.199472399999999994e-01 -7.327817799999999764e-03 -4.725052000000000141e-01 -7.013049500000000380e-01 -1.261340799999999929e+00 -1.594975299999999985e+00 -4.019381899999999730e-01 -9.609339799999999654e-01 -1.499897700000000000e+00 -1.352134600000000075e+00 -1.517547299999999932e+00 -1.241106199999999937e+00 -1.321481600000000034e+00 -1.341555099999999889e+00 -1.497784000000000004e+00 -1.772727299999999895e+00 -1.761805499999999913e+00 -1.585602900000000037e+00 -1.731079899999999894e+00 -1.886959000000000053e+00 -1.822068800000000044e+00 -2.005936999999999859e+00 -1.626292099999999907e+00 -1.433527100000000054e+00 -1.565675600000000056e+00 -1.256999800000000000e+00 -1.142584999999999962e+00 -4.761342700000000261e-01 -6.782390799999999942e-01 -1.221535299999999963e-01 -4.341073899999999854e-03 4.311820599999999920e-02 6.339513700000000140e-01 3.635064000000000073e-01 6.259422700000000228e-01 5.721005799999999697e-01 5.166998900000000505e-01 7.713540800000000530e-01 4.575661200000000206e-01 6.975957400000000197e-01 7.181337599999999544e-01 5.297706599999999488e-01 2.857960399999999734e-01 4.974927000000000099e-01 6.416784700000000008e-01 4.391168599999999977e-01 3.580588499999999841e-01 5.781023299999999976e-01 6.081248799999999788e-01 5.399465599999999643e-01 6.857220200000000432e-01 3.930037200000000008e-01 4.430444000000000049e-01 5.686107999999999718e-01 3.710138000000000047e-01 4.724638199999999788e-01 4.289791199999999916e-01 5.443355600000000516e-01 4.254687200000000225e-01 -7.826348000000000332e-03 5.299486599999999603e-01 7.460160099999999517e-01 4.919776799999999728e-01 8.113953600000000099e-01 1.017060000000000075e+00 9.074899699999999791e-01 7.076268500000000294e-01 6.367879499999999915e-01 4.402306699999999906e-01 5.170181000000000360e-01 1.821766900000000022e-01 4.253588500000000105e-01 4.318933699999999987e-01 2.195047400000000037e-01 2.293212199999999923e-01 1.480024000000000062e-01 2.868553699999999984e-01 3.266456600000000043e-01 8.993843499999999713e-02 5.673159700000000166e-02 3.876146500000000050e-01 1.534003100000000119e-01 5.327159299999999487e-01 -5.898689399999999805e-02 7.712739000000000400e-02 1.239710499999999938e+00 8.398385600000000117e-01 2.396425600000000156e+00 3.292647999999999797e+00 2.015700299999999778e+00 2.046505400000000030e+00 5.786717300000000508e-01 -4.605050099999999924e-01 2.909390399999999821e-01
1.000000000000000000e+00 5.938398400000000077e-01 8.994949700000000048e-01 2.795582200000000128e+00 3.082931900000000169e+00 1.826174900000000045e+00 2.085698599999999958e-01 -1.000320700000000007e-01 7.824383900000000391e-01 8.968994700000000320e-01 9.916825299999999510e-01 7.484628300000000234e-01 2.227047100000000002e-01 -3.510102399999999734e-01 -7.142808499999999672e-01 -7.922187200000000429e-01 -9.252958199999999911e-01 -1.021630899999999897e+00 -1.222936699999999988e+00 -1.134471699999999972e+00 -1.101046200000000086e+00 -1.374014899999999928e+00 -1.508531700000000031e+00 -1.476103299999999896e+00 -1.497716000000000047e+00 -1.760639700000000030e+00 -1.829617100000000107e+00 -1.673925700000000072e+00 -1.933767599999999920e+00 -2.156722100000000086e+00 -1.863186500000000079e+00 -2.018344499999999986e+00 -2.029014899999999955e+00 -1.684182800000000091e+00 -1.438710300000000109e+00 -1.320947600000000000e+00 -9.711025100000000299e-01 -2.998815400000000020e-01 3.875077100000000330e-02 3.161626799999999737e-01 6.752665100000000420e-01 9.075102200000000341e-01 1.067484099999999936e+00 1.054159700000000033e+00 1.161883199999999894e+00 1.099413699999999938e+00 9.892648200000000447e-01 8.867831499999999645e-01 8.094550600000000040e-01 9.293512699999999516e-01 7.222258299999999576e-01 6.020382800000000367e-01 7.362878000000000478e-01 6.984482100000000138e-01 7.080999199999999938e-01 7.068824099999999611e-01 7.035274900000000331e-01 6.078963099999999953e-01 6.487889999999999491e-01 6.226925899999999903e-01 5.286143100000000317e-01 4.539201700000000117e-01 4.266987700000000050e-01 5.612648399999999871e-01 3.361352200000000123e-01 3.296663300000000074e-01 3.485747699999999782e-01 1.082155399999999990e-01 2.611207700000000020e-01 1.278344100000000094e-01 1.751737200000000050e-01 1.904549799999999959e-01 1.083340899999999940e-01 1.875225299999999928e-01 2.045716999999999952e-01 2.392794599999999994e-01 5.528334099999999696e-01 6.247693199999999614e-01 5.290001800000000420e-01 3.699505699999999786e-01 1.672615699999999983e-01 1.709503800000000129e-01 -7.183550599999999342e-02 -1.787509999999999932e-01 -1.620682599999999918e-01 -2.346112599999999881e-01 -1.632126100000000080e-01 -2.638344300000000087e-01 -2.078860600000000114e-01 -2.412338199999999877e-01 -2.673381899999999756e-01 -1.763091099999999911e-01 -1.796253299999999997e-01 -1.705751199999999967e-01 -2.058579700000000012e-01 -4.294558200000000298e-02 2.211452399999999999e-02
1.000000000000000000e+00 1.615680599999999911e+00 2.624588000000000143e+00 1.699907599999999963e+00 1.675765200000000066e+00 2.981162099999999926e-01 2.173639200000000021e-02 8.761907399999999679e-01 6.468895000000000062e-01 4.107475999999999905e-01 1.665833100000000122e-01 -2.541277800000000253e-01 -8.336459800000000087e-01 -7.667093600000000064e-01 -9.346852100000000441e-01 -1.026655300000000048e+00 -1.142477500000000035e+00 -1.111296000000000062e+00 -1.124043799999999926e+00 -1.261528800000000006e+00 -1.351113000000000008e+00 -1.425615999999999994e+00 -1.403196099999999946e+00 -1.559619499999999936e+00 -1.717112900000000053e+00 -1.756118700000000032e+00 -1.856277900000000036e+00 -1.980433700000000075e+00 -2.094013700000000089e+00 -2.093830200000000197e+00 -2.233348900000000192e+00 -2.095284499999999994e+00 -2.097529600000000105e+00 -1.916471100000000094e+00 -1.612254999999999994e+00 -1.414451799999999926e+00 -8.510790700000000486e-01 -4.501858699999999880e-01 -2.430276899999999907e-01 1.259284499999999973e-01 4.464064400000000155e-01 6.011009699999999567e-01 6.677296099999999734e-01 7.909052199999999644e-01 7.767687100000000289e-01 6.776521899999999876e-01 6.611409599999999998e-01 6.278550400000000309e-01 5.422112900000000124e-01 5.702153300000000202e-01 5.909247600000000489e-01 5.879701800000000089e-01 5.787462100000000387e-01 5.239484100000000311e-01 5.817316599999999838e-01 5.834321999999999564e-01 6.025982300000000125e-01 6.557147700000000023e-01 6.067662200000000228e-01 6.644488899999999587e-01 5.273162999999999601e-01 5.824365900000000318e-01 6.662022800000000355e-01 5.912877199999999611e-01 5.291835799999999868e-01 4.968048800000000043e-01 5.898388100000000467e-01 4.543513200000000030e-01 4.129239399999999893e-01 4.945339599999999947e-01 4.851690499999999906e-01 4.963989600000000002e-01 4.030210699999999813e-01 5.417118399999999445e-01 6.390034700000000178e-01 7.168309099999999878e-01 9.447433699999999712e-01 8.587884500000000365e-01 6.065931700000000149e-01 5.786203199999999658e-01 5.366307000000000160e-01 3.455274400000000190e-01 2.400320599999999915e-01 2.413653699999999958e-01 2.898527000000000187e-01 1.949448400000000081e-01 2.247331700000000099e-01 3.097075499999999981e-01 2.046205500000000121e-01 2.126390599999999909e-01 1.842280199999999923e-01 1.973342299999999994e-01 2.240227200000000085e-01 2.399317300000000097e-01 1.470615899999999920e-01 2.365344600000000019e-01 4.608080099999999901e-01
1.000000000000000000e+00 3.640328199999999792e-01 1.471536399999999967e+00 3.035610500000000211e+00 3.317081599999999852e+00 1.889586800000000011e+00 2.038810199999999961e-01 -1.395594599999999907e+00 -6.482334600000000391e-01 -2.926702099999999862e-01 -9.651853000000000238e-01 -6.780708600000000530e-01 -1.002693599999999963e+00 -6.233965799999999780e-01 -6.198997200000000429e-01 -7.658819700000000230e-01 -8.673768400000000378e-01 -9.725791900000000378e-01 -7.788130699999999962e-01 -8.130159399999999925e-01 -9.749957799999999786e-01 -1.114716000000000040e+00 -1.017347800000000024e+00 -1.181472599999999984e+00 -1.481011199999999972e+00 -1.381972500000000048e+00 -1.486722099999999935e+00 -1.578289999999999971e+00 -1.676186299999999907e+00 -1.691530299999999931e+00 -1.744494900000000071e+00 -1.774480300000000010e+00 -1.738227699999999931e+00 -1.628254799999999891e+00 -1.528059700000000021e+00 -1.432612400000000008e+00 -1.010863800000000090e+00 -7.015452199999999694e-01 -3.454125399999999901e-01 1.048423700000000042e-02 1.848760700000000035e-01 6.300551699999999977e-01 7.313222600000000018e-01 8.501672500000000410e-01 9.926698600000000150e-01 1.175029700000000066e+00 1.254317300000000079e+00 1.114087300000000003e+00 1.037945700000000082e+00 1.045470600000000028e+00 9.818487000000000187e-01 8.682634399999999975e-01 8.046249100000000265e-01 8.907429000000000041e-01 8.598078099999999502e-01 7.065782600000000135e-01 7.914156900000000050e-01 8.240870700000000326e-01 8.788800399999999735e-01 7.606681199999999476e-01 7.901899599999999690e-01 7.989246800000000537e-01 7.754208900000000293e-01 7.147892599999999819e-01 5.753568100000000518e-01 6.903761400000000270e-01 5.954734999999999889e-01 4.468663700000000127e-01 4.292633100000000090e-01 3.353821200000000058e-01 3.870385499999999812e-01 3.268798700000000168e-01 2.700062699999999927e-01 3.652111699999999739e-01 5.654447400000000012e-01 6.766295300000000346e-01 6.652745199999999803e-01 4.969510799999999895e-01 2.121745499999999895e-01 1.850115699999999863e-01 2.970236199999999882e-01 1.508303300000000124e-01 -1.269121800000000133e-01 -1.626199000000000117e-01 -1.192752200000000012e-01 -1.194969699999999940e-01 -6.079748499999999833e-02 -2.047626100000000116e-01 -1.528378599999999921e-01 -1.638886800000000088e-01 -1.930828300000000108e-01 -1.983553399999999911e-01 -2.879338799999999754e-01 -2.022223400000000004e-01 -2.100039800000000068e-01 -2.010433399999999871e-01 -1.107504099999999936e-01
1.000000000000000000e+00 -1.078552499999999997e-01 2.279878499999999919e-01 1.212908300000000023e-01 -7.208679599999999466e-02 2.080770899999999923e-01 -4.924840600000000013e-01 -1.233078300000000072e+00 -5.232658300000000429e-01 -6.637424299999999944e-01 -1.255045200000000083e+00 -1.195764999999999967e+00 -1.101739400000000035e+00 -1.023375200000000040e+00 -1.436538499999999940e+00 -1.308303200000000110e+00 -1.539348799999999962e+00 -1.710835200000000000e+00 -1.430555900000000102e+00 -1.536925000000000097e+00 -1.958713799999999949e+00 -1.816604600000000014e+00 -1.846960500000000005e+00 -1.932610799999999962e+00 -2.015032399999999946e+00 -1.782719299999999896e+00 -1.527674500000000046e+00 -1.639512000000000080e+00 -1.040808200000000072e+00 -1.118188100000000018e+00 -5.805960799999999589e-01 -2.878647300000000131e-01 3.620528900000000161e-01 5.722796700000000181e-01 2.786256100000000235e-01 8.302294599999999747e-01 9.957173599999999958e-01 9.718035600000000107e-01 1.010664900000000088e+00 1.136433000000000026e+00 1.184846499999999914e+00 9.545273100000000177e-01 7.233734200000000447e-01 4.455326800000000143e-01 1.082518499999999939e+00 6.592819100000000265e-01 4.386315100000000022e-01 6.130237400000000392e-01 4.700786800000000265e-01 5.755900000000000460e-01 7.706691599999999642e-01 5.938674800000000031e-01 4.747158400000000000e-01 5.496867699999999912e-01 6.355325800000000136e-01 6.356882900000000447e-01 1.803762899999999947e-01 8.069825600000000154e-01 3.214645899999999945e-01 1.652056799999999936e-01 4.539007500000000195e-01 3.976426599999999811e-01 8.619296199999999797e-02 2.790024199999999732e-01 5.863551999999999653e-01 4.576297300000000123e-01 6.630903900000000295e-01 6.973566100000000434e-01 1.067085700000000026e+00 9.532107100000000166e-01 5.760994799999999971e-01 6.156265300000000051e-01 2.594779600000000075e-01 2.335972799999999905e-01 -1.261879300000000037e-01 7.118462200000000295e-02 2.492679999999999896e-01 -4.962627900000000231e-02 4.129828499999999708e-02 -7.614869700000000130e-02 -1.441969499999999904e-01 -2.013082600000000010e-03 9.981680200000000655e-03 -2.598756300000000241e-01 1.420281399999999972e-01 4.348714900000000272e-02 -3.439445799999999998e-01 5.221379000000000298e-02 -1.066979299999999964e-01 1.040846699999999903e+00 1.532181999999999933e+00 2.381038300000000163e+00 3.294043100000000113e+00 1.773699499999999984e+00 7.327681799999999357e-02 -1.228083199999999930e+00 -5.125687500000000174e-01
1.000000000000000000e+00 4.657726600000000050e-01 2.114258400000000204e+00 2.607304399999999855e+00 1.799579999999999957e+00 8.813281499999999768e-01 5.025106400000000084e-01 1.041907499999999986e+00 1.200556399999999968e+00 1.129504300000000017e+00 1.211707400000000101e+00 4.515553400000000273e-01 -3.808495100000000022e-01 -5.679743099999999822e-01 -7.218244200000000221e-01 -8.824047499999999600e-01 -8.884741299999999731e-01 -9.872157799999999872e-01 -1.098201900000000064e+00 -1.168373600000000012e+00 -1.329329699999999947e+00 -1.330973699999999926e+00 -1.410998500000000044e+00 -1.493874200000000041e+00 -1.585882199999999909e+00 -1.871146299999999929e+00 -1.866645099999999946e+00 -1.910029699999999941e+00 -2.189917499999999961e+00 -2.298098099999999810e+00 -2.238099800000000084e+00 -2.225548199999999976e+00 -2.134559599999999779e+00 -1.879955700000000007e+00 -1.610673500000000091e+00 -1.242739199999999933e+00 -8.888011300000000503e-01 -3.587865199999999977e-01 -2.380308700000000055e-02 1.743246400000000029e-01 5.604237699999999878e-01 6.204246300000000325e-01 7.917255800000000399e-01 7.549088400000000254e-01 7.925574600000000469e-01 9.393595900000000221e-01 7.064103600000000149e-01 7.364298799999999812e-01 8.266946800000000151e-01 7.207718499999999917e-01 6.936500799999999467e-01 7.383349700000000349e-01 8.015521799999999475e-01 6.628078600000000264e-01 6.676295199999999763e-01 7.037070500000000006e-01 5.897493499999999500e-01 6.224296900000000354e-01 4.888148199999999832e-01 5.100999699999999581e-01 5.412742000000000386e-01 4.048244999999999760e-01 4.048848700000000078e-01 3.658351599999999926e-01 3.962752900000000023e-01 3.457928599999999797e-01 2.786880800000000047e-01 2.755961399999999895e-01 2.219542999999999933e-01 3.299487700000000023e-01 1.780635200000000029e-01 1.771545900000000007e-01 2.931620699999999968e-01 1.663299099999999975e-01 3.437692900000000051e-01 5.241904699999999639e-01 6.236595299999999620e-01 7.765607599999999611e-01 4.991800000000000126e-01 3.266399400000000175e-01 3.218900800000000229e-01 8.457546500000000245e-02 6.043950700000000342e-02 9.821947699999999948e-02 3.133354000000000000e-02 7.520033299999999421e-02 1.170712099999999950e-01 -1.447721000000000077e-02 -2.649682800000000005e-02 3.013912399999999978e-02 -1.056823699999999942e-02 1.245524699999999985e-01 6.373869799999999641e-02 -8.061269100000000715e-03 7.977651500000000617e-02 2.181671099999999974e-01 3.571039100000000244e-01
1.000000000000000000e+00 5.896839699999999462e-01 1.984269000000000061e+00 3.494999899999999826e+00 2.430001799999999879e+00 2.208055599999999785e+00 1.182472100000000026e+00 -8.696916799999999670e-01 -5.534753500000000326e-01 5.349621900000000041e-01 3.375649399999999800e-01 1.012338799999999983e-01 2.927276100000000270e-01 -4.327802699999999669e-02 2.098426700000000089e-02 -7.718537100000000262e-01 -8.963976900000000247e-01 -6.530054899999999662e-01 -1.174636299999999967e+00 -9.474457499999999754e-01 -1.000348000000000015e+00 -1.302616299999999949e+00 -1.152698299999999954e+00 -1.297658500000000048e+00 -1.415618700000000008e+00 -1.403328399999999920e+00 -1.628454899999999927e+00 -1.691402199999999967e+00 -1.503673000000000037e+00 -1.771929800000000110e+00 -1.813182000000000071e+00 -1.854421099999999933e+00 -1.693594299999999997e+00 -1.795257300000000056e+00 -1.724940700000000104e+00 -1.241454999999999975e+00 -1.247731600000000052e+00 -9.892496699999999699e-01 -6.231094700000000541e-01 -3.799675299999999978e-01 1.202412499999999940e-01 3.163845000000000129e-01 3.618582100000000135e-01 5.329875699999999661e-01 8.569053599999999493e-01 8.783533000000000035e-01 9.075248799999999783e-01 1.184965700000000011e+00 1.011191799999999974e+00 8.747352299999999747e-01 9.164365899999999954e-01 1.013194699999999893e+00 8.764922000000000546e-01 8.269554399999999861e-01 9.545986800000000327e-01 6.589379800000000342e-01 7.924546399999999879e-01 6.028694599999999681e-01 6.910663799999999801e-01 7.355757499999999727e-01 6.777194300000000116e-01 6.194220099999999674e-01 4.276651599999999886e-01 5.985686399999999852e-01 6.917675300000000194e-01 4.191027900000000028e-01 4.961238499999999774e-01 5.527153000000000205e-01 3.385504799999999870e-01 3.228635499999999992e-01 2.213840300000000094e-01 3.791986700000000154e-01 2.420329400000000020e-01 3.141612500000000030e-01 6.690622400000000303e-01 6.635786799999999763e-01 7.138058600000000142e-01 6.553029500000000507e-01 3.768196600000000007e-01 2.028765600000000113e-01 1.435277699999999990e-01 4.576299000000000339e-02 -1.610538699999999879e-01 -1.169723899999999955e-01 -8.609034100000000078e-02 -2.595502900000000168e-01 -1.949059300000000050e-01 -2.950646399999999892e-01 -3.796199699999999733e-01 -3.264283399999999835e-01 -4.483540599999999987e-01 -3.137080300000000266e-01 -3.924482899999999774e-01 -4.939334899999999751e-01 -4.870347899999999952e-01 -5.502482100000000154e-01 -1.168635600000000052e-01
1.000000000000000000e+00 1.837275999999999909e+00 2.766485499999999931e+00 2.008560600000000029e+00 1.462108799999999986e+00 3.982606100000000149e-01 8.908798599999999679e-01 1.313205699999999920e+00 8.951143000000000294e-01 1.136378099999999947e+00 5.565857100000000113e-01 -1.540374200000000082e-01 -3.076465299999999736e-01 -4.541891299999999965e-01 -7.103359700000000387e-01 -6.448867600000000033e-01 -7.890245200000000070e-01 -8.738155199999999567e-01 -1.059857199999999944e+00 -1.196944900000000089e+00 -1.268501000000000101e+00 -1.541233999999999993e+00 -1.673389299999999968e+00 -1.807913000000000103e+00 -2.133030999999999899e+00 -2.342957100000000015e+00 -2.398518199999999823e+00 -2.560607000000000077e+00 -2.649804399999999838e+00 -2.453184999999999949e+00 -2.207275000000000098e+00 -1.896629300000000073e+00 -1.507787100000000047e+00 -9.278231500000000409e-01 -6.277430800000000088e-01 -2.401348799999999950e-01 1.805323899999999870e-01 2.703087200000000023e-01 4.418932199999999755e-01 5.578436900000000032e-01 6.144435900000000395e-01 6.287093499999999446e-01 5.960878200000000460e-01 5.222811600000000221e-01 5.074427999999999717e-01 4.335835800000000240e-01 5.286937600000000126e-01 6.265448200000000023e-01 4.426853600000000277e-01 4.847644899999999923e-01 6.434439100000000078e-01 6.171120900000000020e-01 5.690397400000000161e-01 5.623344099999999512e-01 5.645938700000000532e-01 5.665211700000000183e-01 5.601555599999999968e-01 4.957145299999999866e-01 5.740328799999999676e-01 3.695005800000000229e-01 4.632835499999999884e-01 4.130927099999999741e-01 3.133106099999999894e-01 4.287936800000000104e-01 4.085884599999999867e-01 3.229590500000000253e-01 3.012798700000000052e-01 3.735825999999999869e-01 2.737100599999999773e-01 3.296151800000000076e-01 2.907101400000000058e-01 2.987377199999999844e-01 2.920351199999999814e-01 1.244938099999999964e-01 2.141442899999999872e-01 2.198824100000000004e-01 3.537974400000000186e-01 7.268629599999999469e-01 5.986750199999999467e-01 4.803637099999999993e-01 4.673706799999999828e-01 2.698663499999999771e-01 1.384961100000000056e-01 5.526544800000000174e-02 1.563709500000000086e-01 1.209298099999999918e-02 6.729756400000000069e-03 1.441520900000000105e-01 -7.114717399999999359e-02 -4.001741699999999957e-02 4.724865899999999841e-02 4.392580499999999832e-02 -2.328338799999999948e-03 5.066131699999999738e-02 1.682717200000000135e-01 4.247265299999999910e-02 8.680189500000000391e-02
1.000000000000000000e+00 -4.917573399999999872e-01 3.544325599999999937e-02 1.837872500000000020e+00 3.077025100000000180e+00 1.422320400000000040e+00 -1.862581000000000098e-01 -1.762971700000000030e+00 -1.577828500000000078e+00 -6.001841100000000068e-02 -5.146149199999999757e-01 -7.619571899999999509e-01 -3.788044500000000148e-01 -3.847572400000000004e-01 -9.877229199999999487e-01 -1.104543499999999900e+00 -1.241514599999999913e+00 -1.030891500000000072e+00 -1.102945199999999959e+00 -1.743376000000000037e+00 -7.050400900000000082e-01 -1.051632300000000075e+00 -1.731126100000000001e+00 -1.128126399999999974e+00 -1.274313299999999982e+00 -1.255141499999999910e+00 -1.561967200000000000e+00 -1.523940499999999920e+00 -1.285084499999999963e+00 -1.493362700000000043e+00 -1.665109900000000032e+00 -1.503477600000000081e+00 -1.393691400000000025e+00 -1.801078299999999910e+00 -1.394286700000000101e+00 -7.962038599999999855e-01 -9.189734999999999987e-01 -7.170714000000000254e-01 -2.632576300000000202e-01 -2.287748699999999913e-01 3.457259699999999936e-01 1.042131200000000035e+00 5.659657500000000452e-01 9.952914099999999875e-01 1.299366900000000102e+00 1.104013799999999934e+00 1.077513299999999896e+00 1.104009900000000099e+00 1.490589399999999953e+00 1.416708000000000078e+00 1.009324399999999899e+00 1.051303499999999946e+00 1.034657200000000055e+00 9.943249899999999641e-01 1.154560199999999925e+00 1.104678700000000013e+00 9.484608100000000430e-01 1.003401900000000069e+00 9.894178500000000431e-01 1.053605600000000031e+00 9.472246199999999616e-01 5.627237099999999881e-01 8.378250200000000314e-01 1.062533699999999914e+00 6.630914300000000372e-01 5.565226100000000287e-01 5.364646100000000084e-01 7.359199100000000104e-01 6.818272399999999456e-01 1.468047100000000049e-01 5.463210299999999853e-01 6.289191299999999929e-01 2.895612000000000186e-01 6.837821299999999880e-01 6.618157500000000359e-01 7.850153100000000217e-01 5.458325699999999614e-01 4.948665899999999951e-01 3.146219299999999941e-01 -3.083813800000000105e-02 1.885052799999999973e-01 1.353285400000000041e-02 1.619036799999999943e-01 -1.107067300000000032e-01 -3.122717800000000127e-02 -6.828099599999999658e-02 -2.796698499999999976e-01 -4.591710099999999906e-01 -5.490004700000000043e-02 7.192122800000000371e-02 -5.050448199999999499e-01 -6.023792599999999720e-02 -9.473645799999999562e-02 -3.453572300000000150e-01 -3.604846600000000123e-01 -3.418001500000000248e-01 4.888280899999999929e-01
1.000000000000000000e+00 6.539292899999999964e-01 2.177289899999999889e+00 3.644782800000000211e+00 2.279203299999999821e+00 9.783674399999999771e-01 -3.882958100000000190e-01 -9.119110700000000458e-01 -1.483295000000000030e-01 3.054388100000000050e-01 -2.300979300000000061e-01 -4.515302600000000166e-01 2.241126200000000124e-01 -5.500536999999999788e-01 -9.339767500000000222e-01 -8.416286699999999676e-01 -7.637266600000000016e-01 -1.390976599999999896e+00 -6.689087999999999701e-01 -1.180267500000000025e+00 -1.366029200000000055e+00 -1.003644200000000097e+00 -1.486201099999999942e+00 -1.423197000000000045e+00 -1.497927100000000067e+00 -1.530533300000000096e+00 -1.814269600000000038e+00 -1.964059999999999917e+00 -1.956102800000000030e+00 -1.934263599999999972e+00 -1.920925400000000005e+00 -1.984634500000000079e+00 -1.796927699999999906e+00 -1.717051099999999941e+00 -1.741488200000000042e+00 -6.764968999999999566e-01 -6.038918300000000183e-01 -5.946801699999999524e-01 7.146701199999999643e-02 4.754939100000000335e-02 6.170811899999999461e-01 5.907181900000000319e-01 7.193286300000000244e-01 1.053605200000000020e+00 9.674144300000000474e-01 1.158223999999999920e+00 8.643075900000000145e-01 8.569120500000000362e-01 1.366365599999999958e+00 6.458079899999999984e-01 6.311731600000000109e-01 9.291243599999999825e-01 4.060179199999999766e-01 6.487675899999999496e-01 7.248280900000000360e-01 4.007469200000000065e-01 4.050765199999999955e-01 6.889333300000000104e-01 4.065435000000000021e-01 3.194762300000000277e-01 7.253055699999999550e-01 2.984015400000000207e-01 5.047233800000000548e-01 3.958271600000000112e-01 3.990745199999999882e-01 5.546894700000000178e-01 1.839268699999999923e-01 4.610395099999999857e-01 1.068241800000000047e-01 6.312376600000000337e-01 6.714936000000000238e-01 -1.068191099999999949e-01 3.929420499999999872e-01 6.110290299999999730e-01 4.949140000000000206e-01 1.028177200000000013e+00 8.126673500000000105e-01 5.001670400000000072e-01 4.765636500000000053e-01 4.326087100000000074e-01 4.918590099999999854e-01 1.504055699999999954e-02 -9.801035099999999556e-02 2.762327700000000164e-02 -1.175904599999999939e-01 1.064658500000000008e-01 -6.409479199999999766e-02 9.988316999999999335e-02 1.413954099999999992e-01 -2.390918300000000052e-01 2.474238900000000074e-01 -8.515000999999999820e-02 7.799913399999999601e-03 4.078675700000000126e-01 -1.949151899999999882e-01 1.711071899999999923e-01 1.970273100000000110e-01
1.000000000000000000e+00 1.058918699999999991e+00 1.725794999999999968e+00 9.085348800000000447e-01 1.385105400000000042e+00 1.041184799999999910e+00 5.722808900000000421e-01 -1.352723200000000014e-02 -5.884775399999999657e-01 -4.548607900000000148e-01 -6.914202499999999585e-01 -5.933945600000000153e-01 -9.249094900000000008e-01 -9.905638500000000235e-01 -9.600699400000000105e-01 -1.201874899999999968e+00 -1.031165099999999946e+00 -1.381809800000000088e+00 -1.585578900000000013e+00 -1.523562499999999931e+00 -1.837930899999999923e+00 -1.986012300000000064e+00 -2.004772099999999835e+00 -1.991754199999999919e+00 -1.989307299999999890e+00 -2.154912700000000125e+00 -2.123284599999999855e+00 -1.705906300000000098e+00 -1.406806900000000082e+00 -1.217173499999999908e+00 -8.586826499999999918e-01 -6.937952400000000353e-01 -2.635764199999999780e-01 1.393327599999999999e-01 3.082534499999999844e-01 4.085049000000000041e-01 6.849599299999999946e-01 8.203733199999999615e-01 7.900008200000000480e-01 1.021645600000000043e+00 8.164604600000000545e-01 8.844477699999999665e-01 1.040472700000000028e+00 6.526172799999999663e-01 8.273906100000000263e-01 5.993078099999999964e-01 6.628353900000000243e-01 6.947175199999999773e-01 5.152012099999999650e-01 6.664381700000000519e-01 5.047789299999999590e-01 4.776365699999999825e-01 6.515867699999999818e-01 4.940327299999999755e-01 3.328952399999999812e-01 3.771572699999999889e-01 4.021048199999999739e-01 6.107801600000000164e-01 3.771696399999999727e-01 1.516744800000000004e-01 2.389842899999999881e-01 2.922395999999999883e-01 2.009730100000000075e-01 1.363952099999999890e-01 2.562359699999999796e-01 4.934751600000000238e-01 7.010561499999999890e-01 7.234774099999999875e-01 7.774934199999999906e-01 5.739162100000000377e-01 1.991491900000000037e-01 2.711371899999999724e-01 6.212022700000000008e-02 -3.208260399999999790e-01 -1.913117599999999974e-01 -3.633089700000000088e-01 -3.120523700000000233e-01 -4.968172900000000086e-02 -1.857968200000000014e-01 -3.786148100000000238e-01 -3.086096099999999787e-01 -7.140362699999999729e-02 -2.980977100000000157e-01 -4.038186699999999907e-01 -3.537211000000000105e-01 -2.617954699999999746e-01 -1.040891600000000000e-01 -5.061094200000000320e-01 2.331489399999999990e-01 5.163702000000000014e-01 2.316837099999999872e+00 3.339118899999999890e+00 1.799718200000000046e+00 1.306990499999999944e+00 -3.134067400000000170e-01 -7.342948400000000042e-01 2.886361399999999855e-01
1.000000000000000000e+00 4.653477500000000044e-01 8.604995800000000417e-01 1.247617399999999988e+00 1.987051600000000029e+00 2.265494499999999967e+00 1.639544399999999902e+00 9.332855500000000193e-01 2.528583400000000148e-01 -2.569965799999999745e-01 -6.043296800000000357e-03 1.195472100000000010e-01 -1.034029800000000054e-01 3.474256900000000092e-02 2.152824299999999899e-02 -1.738447399999999976e-01 -3.992242699999999922e-01 -7.504778699999999914e-01 -7.621727900000000444e-01 -8.322021400000000346e-01 -9.640034400000000447e-01 -8.606827000000000227e-01 -8.761407399999999734e-01 -1.009532799999999897e+00 -1.138070099999999973e+00 -1.221323299999999890e+00 -1.285678199999999993e+00 -1.364611800000000041e+00 -1.473975599999999941e+00 -1.626583700000000077e+00 -1.705147600000000097e+00 -1.818363900000000033e+00 -1.964584799999999909e+00 -2.007048699999999908e+00 -2.039130000000000109e+00 -2.025278199999999806e+00 -1.935197999999999974e+00 -1.955324199999999957e+00 -1.882908299999999979e+00 -1.587293099999999901e+00 -1.312315399999999910e+00 -1.063552499999999901e+00 -8.760913399999999962e-01 -6.484119999999999884e-01 -3.035847600000000091e-01 -1.221247800000000022e-01 3.065750099999999933e-03 9.149891800000000547e-03 8.126890500000000239e-02 2.775444000000000244e-01 3.020226200000000194e-01 3.647181999999999924e-01 2.695403800000000238e-01 1.713790799999999892e-01 4.331453499999999845e-01 5.189243000000000050e-01 4.065334800000000026e-01 3.400329500000000005e-01 3.608986499999999875e-01 3.441079200000000116e-01 2.398031599999999874e-01 3.534426500000000249e-01 5.165951600000000532e-01 4.021271900000000232e-01 3.842506900000000059e-01 6.112351000000000312e-01 6.312864299999999540e-01 5.225026999999999866e-01 6.565466699999999989e-01 7.801860600000000145e-01 8.803972199999999804e-01 1.108357199999999931e+00 1.187363600000000075e+00 1.246960099999999905e+00 1.302358899999999986e+00 1.330485799999999941e+00 1.352071999999999941e+00 1.185111000000000026e+00 1.076671399999999945e+00 9.719629100000000133e-01 8.142978600000000400e-01 7.585368999999999584e-01 6.695667400000000491e-01 7.473196300000000125e-01 8.856640099999999460e-01 8.694067199999999662e-01 6.228318699999999541e-01 2.893406000000000033e-01 2.677011899999999778e-01 3.020399799999999857e-01 3.698573499999999736e-01 3.257705599999999868e-01 3.296414200000000183e-02 8.108738999999999530e-02 2.015541200000000033e-01 3.164333599999999969e-01 3.473872599999999755e-01
1.000000000000000000e+00 7.566809500000000188e-01 1.993937400000000082e+00 2.918818700000000099e+00 1.631461100000000108e+00 1.496525900000000020e-01 -1.278395500000000018e+00 -1.268868300000000060e+00 -2.327418400000000054e-01 -3.901509799999999806e-01 -3.355660100000000257e-01 -5.081294899999999615e-01 -5.300959400000000432e-01 -4.649173200000000228e-01 -1.074819200000000086e+00 -1.045786899999999964e+00 -1.077996900000000036e+00 -1.232197599999999893e+00 -1.260445400000000049e+00 -1.344978400000000018e+00 -1.238438300000000103e+00 -1.622889900000000107e+00 -1.595551299999999895e+00 -1.584802000000000044e+00 -1.564567299999999994e+00 -1.394782500000000036e+00 -1.864684599999999914e+00 -1.838445899999999966e+00 -1.805992700000000006e+00 -1.746330799999999961e+00 -1.936026900000000106e+00 -1.682287499999999936e+00 -1.792433299999999896e+00 -1.608222800000000063e+00 -1.201060999999999934e+00 -1.179754299999999922e+00 -9.480840400000000168e-01 -3.547619699999999821e-01 -2.708397599999999850e-01 -1.602553899999999976e-01 5.278759100000000037e-01 3.674334799999999790e-01 5.402153200000000544e-01 7.659813399999999550e-01 5.243130700000000477e-01 8.528903700000000088e-01 1.110858399999999913e+00 6.705115099999999773e-01 9.501361999999999863e-01 8.326463499999999796e-01 8.316663399999999484e-01 7.736872399999999983e-01 6.562377299999999636e-01 1.061470799999999937e+00 5.593420799999999637e-01 6.051259399999999733e-01 6.719373600000000391e-01 8.599991000000000163e-01 7.870030799999999660e-01 6.400892900000000330e-01 7.317324099999999998e-01 7.554812699999999825e-01 9.532813399999999771e-01 8.553285699999999547e-01 4.465088400000000179e-01 7.463975600000000155e-01 8.187734199999999740e-01 3.898778399999999755e-01 6.011577000000000170e-01 6.262049899999999614e-01 5.254523599999999517e-01 5.434753900000000026e-01 2.956860299999999886e-01 7.780272700000000485e-01 9.621848899999999594e-01 7.607751400000000164e-01 1.167464499999999905e+00 7.933311899999999639e-01 6.671193499999999998e-01 7.536994799999999772e-01 3.894308699999999845e-01 5.300401799999999719e-01 2.992676799999999804e-01 2.300388700000000064e-01 1.836304699999999901e-01 1.965083300000000088e-01 4.058270400000000278e-01 1.283192700000000130e-01 -1.916756500000000030e-01 1.000771000000000022e-01 2.213476699999999964e-01 3.213583400000000201e-01 1.729843500000000089e-01 -2.708667000000000158e-01 1.746399499999999883e-01 3.778466200000000219e-01 -4.540364799999999784e-02
1.000000000000000000e+00 1.709221099999999938e+00 2.752852299999999808e+00 1.682990200000000103e+00 1.241861799999999905e+00 -3.797210399999999958e-02 -2.175889199999999912e-01 7.896456299999999873e-01 5.474283399999999578e-01 3.021037799999999884e-01 3.390654200000000063e-01 -1.004794600000000065e-01 -4.452951800000000127e-01 -5.759810899999999734e-01 -9.207572000000000534e-01 -7.717250399999999733e-01 -1.170445500000000028e+00 -8.181503900000000051e-01 -9.401505500000000293e-01 -1.158419400000000099e+00 -1.233645199999999997e+00 -1.428485199999999899e+00 -1.499818600000000002e+00 -1.496922300000000039e+00 -1.819819800000000098e+00 -1.994325899999999985e+00 -1.690856899999999996e+00 -2.300812000000000079e+00 -2.353505199999999853e+00 -2.313803200000000171e+00 -2.424768600000000163e+00 -1.833207800000000054e+00 -2.123542200000000157e+00 -2.235913599999999946e+00 -1.106878699999999993e+00 -1.104819299999999949e+00 -7.141021699999999806e-01 -1.453063800000000128e-01 2.218501599999999838e-02 4.411200299999999963e-01 4.152634299999999890e-01 8.374972200000000422e-01 7.198510399999999976e-01 8.264314499999999564e-01 7.010835800000000395e-01 7.118417299999999504e-01 7.884237200000000501e-01 5.361236600000000019e-01 5.810842800000000086e-01 8.136719999999999509e-01 6.010042300000000282e-01 4.249864700000000051e-01 7.473609300000000344e-01 7.942348000000000185e-01 7.536883800000000466e-01 7.641534800000000516e-01 5.906161500000000064e-01 7.544904700000000242e-01 6.970622300000000049e-01 5.381606100000000392e-01 5.823039800000000543e-01 8.357461999999999946e-01 3.841701499999999880e-01 5.646220699999999759e-01 6.884837999999999791e-01 2.334184400000000048e-01 5.053699999999999859e-01 3.599820499999999979e-01 3.835878699999999975e-01 3.942936899999999745e-01 3.790856000000000225e-01 4.810223200000000032e-01 2.929733700000000107e-01 3.981070999999999915e-01 5.333044900000000199e-01 6.480190500000000409e-01 8.102375000000000549e-01 6.663610899999999893e-01 5.673265100000000061e-01 5.322707300000000252e-01 2.485462700000000136e-01 1.471474700000000024e-01 3.365724299999999780e-01 1.144655499999999992e-01 4.391218899999999731e-02 2.619280399999999731e-01 9.423755400000000115e-02 1.104646299999999942e-01 2.048506200000000110e-01 2.573572000000000082e-01 -5.526672099999999782e-02 1.110210199999999980e-01 3.086684900000000176e-01 4.872401800000000088e-02 7.216691799999999657e-02 3.480245100000000091e-01 6.584883000000000264e-01
1.000000000000000000e+00 1.076058900000000040e+00 1.472993199999999892e+00 1.585360899999999962e+00 2.593771999999999966e+00 3.272332200000000135e+00 2.566535700000000197e+00 1.717677799999999921e+00 1.117535900000000026e+00 2.541548100000000088e-01 -1.714617099999999894e-01 -1.583040199999999897e-01 -1.324144299999999996e-01 -1.652066199999999846e-02 -2.847606199999999990e-02 -9.786748300000000511e-02 -1.818109599999999937e-01 -4.104412299999999902e-01 -5.768673399999999507e-01 -7.891974099999999881e-01 -9.870209599999999472e-01 -1.034771499999999955e+00 -1.191741600000000068e+00 -1.205528399999999944e+00 -1.046864100000000075e+00 -1.086669799999999908e+00 -1.050691700000000006e+00 -9.906236999999999959e-01 -1.229118200000000050e+00 -1.366357299999999997e+00 -1.319087600000000027e+00 -1.439114500000000074e+00 -1.478525700000000054e+00 -1.353202599999999922e+00 -1.577180999999999944e+00 -1.868792900000000090e+00 -1.600751000000000035e+00 -1.383024800000000054e+00 -1.726547199999999949e+00 -1.842269399999999946e+00 -1.440055300000000038e+00 -1.262245400000000073e+00 -1.313129900000000072e+00 -1.012029400000000079e+00 -6.945335099999999651e-01 -7.413801700000000050e-01 -5.785712699999999709e-01 -9.589696200000000226e-02 8.178559300000000365e-02 -6.174113999999999991e-02 -1.186667099999999947e-01 7.529866799999999916e-02 4.413849799999999823e-01 6.247572000000000125e-01 4.579639300000000190e-01 3.415950400000000164e-01 4.227732200000000051e-01 3.971746899999999969e-01 3.670488700000000271e-01 3.870841500000000157e-01 3.102577000000000251e-01 3.877744499999999928e-01 3.185830599999999735e-01 -3.867880900000000149e-02 -7.721220499999999730e-03 1.755770500000000123e-01 2.087637800000000099e-01 2.415126099999999887e-01 1.269551999999999903e-01 2.904446900000000054e-01 5.544615800000000094e-01 3.780854699999999791e-01 4.723567699999999814e-01 8.587824099999999961e-01 1.038343599999999922e+00 1.224477999999999955e+00 1.229994999999999949e+00 1.059615900000000055e+00 1.121351800000000010e+00 1.042847700000000044e+00 6.582320200000000288e-01 5.954357599999999806e-01 6.719191399999999703e-01 4.969292100000000101e-01 6.249910300000000030e-01 7.640775600000000445e-01 4.443899700000000230e-01 4.034477200000000097e-01 5.133242500000000375e-01 2.788443500000000186e-01 2.238060600000000011e-01 3.217940200000000139e-01 1.252278500000000017e-01 -9.792865000000000597e-02 4.291351699999999825e-02 2.323010500000000089e-01 1.127158000000000049e-01
1.000000000000000000e+00 6.813810700000000331e-01 6.987202900000000216e-01 2.308532299999999982e+00 3.201329900000000173e+00 2.005748899999999946e+00 1.198207800000000045e+00 1.724639700000000055e-03 1.282240400000000113e-01 9.815671700000000444e-01 8.382296700000000378e-01 8.158351200000000247e-01 7.181991899999999873e-01 2.761413799999999918e-01 -7.851570100000000441e-01 -7.461024699999999621e-01 -6.301719199999999965e-01 -1.124245900000000020e+00 -1.046420700000000092e+00 -1.136192799999999892e+00 -1.523729799999999912e+00 -1.019439900000000065e+00 -1.333868400000000065e+00 -1.614136500000000085e+00 -1.514871599999999985e+00 -1.745321200000000017e+00 -1.405057999999999918e+00 -1.861895899999999937e+00 -1.888438499999999909e+00 -1.801318600000000103e+00 -2.147418399999999838e+00 -1.676501400000000030e+00 -2.041036399999999862e+00 -1.946133600000000019e+00 -1.665461400000000092e+00 -1.726658400000000038e+00 -1.116416999999999993e+00 -9.820098699999999514e-01 -7.835888800000000431e-01 -1.083311099999999944e-01 2.094685599999999981e-01 2.677677099999999921e-01 4.961633100000000240e-01 7.458722599999999536e-01 9.825582699999999559e-01 9.068809500000000190e-01 8.245124000000000342e-01 9.613105100000000069e-01 7.878503199999999929e-01 8.514836900000000153e-01 1.007108899999999974e+00 6.761614900000000317e-01 4.147539599999999771e-01 5.262329300000000432e-01 8.205549399999999549e-01 7.593418600000000351e-01 5.252677599999999725e-01 6.599976300000000018e-01 7.949880700000000466e-01 6.394446499999999478e-01 7.692760400000000498e-01 5.733549500000000299e-01 4.932034599999999824e-01 6.291151299999999669e-01 2.843716099999999969e-01 4.339219200000000165e-01 4.148983099999999924e-01 1.450842999999999994e-01 2.559814200000000151e-01 2.866593499999999795e-01 2.990277299999999916e-01 -1.979193799999999850e-02 4.868096599999999774e-01 1.302965700000000004e-01 3.678449899999999828e-01 7.923259000000000274e-01 7.288692700000000135e-01 8.199091099999999965e-01 2.821520100000000086e-01 2.884990000000000054e-01 3.760580000000000034e-01 1.305951399999999950e-02 -7.001461200000000384e-02 -9.106146900000000599e-02 -9.192585699999999971e-02 7.458014200000000204e-02 -1.607893100000000117e-02 -2.186582999999999999e-01 -9.591324199999999578e-02 -2.270575099999999902e-01 -5.984789199999999976e-02 7.521534199999999927e-03 -9.451127900000000359e-02 7.746418300000000026e-04 -1.321066899999999988e-01 -7.140434499999999407e-02 -1.068588600000000000e-01
1.000000000000000000e+00 3.913854999999999973e-01 1.723994100000000085e+00 2.939929100000000073e+00 3.011208200000000001e+00 2.144913999999999987e+00 6.653504500000000377e-01 -1.099507400000000024e+00 -6.545796699999999468e-01 2.744238800000000089e-01 1.947295199999999893e-01 2.206656999999999924e-01 -2.327295999999999879e-02 3.142837499999999729e-01 -2.800384399999999996e-01 -9.839508399999999932e-01 -6.210005899999999635e-01 -9.734892400000000334e-01 -1.025336900000000107e+00 -8.468512599999999946e-01 -1.293302500000000022e+00 -1.119105999999999934e+00 -1.283508499999999941e+00 -1.436269199999999913e+00 -1.288793599999999984e+00 -1.572136200000000095e+00 -1.619057900000000050e+00 -1.744299700000000009e+00 -1.765632899999999950e+00 -1.979794599999999960e+00 -1.990881499999999971e+00 -1.744769000000000014e+00 -2.110307699999999897e+00 -1.802226499999999954e+00 -1.686947500000000044e+00 -1.528996699999999986e+00 -9.186258099999999871e-01 -9.250369200000000403e-01 -6.549179099999999920e-01 -1.905403499999999972e-01 1.582251399999999864e-01 4.369224999999999914e-01 6.265081900000000203e-01 7.611904200000000342e-01 8.628159699999999876e-01 1.048691899999999899e+00 1.025004000000000026e+00 1.201249599999999917e+00 9.798670499999999617e-01 9.837501100000000109e-01 9.794717600000000246e-01 7.168715799999999527e-01 9.784283499999999467e-01 6.943018899999999771e-01 5.512030900000000067e-01 6.973945999999999756e-01 5.528837300000000177e-01 5.869022400000000195e-01 4.933251200000000058e-01 4.480467599999999884e-01 5.639865299999999859e-01 5.475912400000000346e-01 4.174268500000000159e-01 4.113392300000000001e-01 4.289271100000000003e-01 4.869287400000000265e-01 3.591013399999999911e-01 2.978742300000000176e-01 4.299612899999999960e-01 1.881861599999999912e-01 2.973514600000000119e-01 2.144055500000000003e-01 2.565432400000000057e-01 6.447650499999999507e-01 6.630204100000000045e-01 6.224100200000000083e-01 9.262183000000000499e-01 6.598096300000000358e-01 4.739037199999999728e-01 5.222803400000000096e-01 9.727133699999999938e-02 9.937638799999999606e-02 4.454869700000000103e-04 -1.739012199999999952e-01 -3.675159299999999907e-02 -4.659736400000000223e-02 1.345491600000000010e-01 -1.853323799999999910e-01 -1.969420100000000007e-01 -1.084893099999999916e-02 -8.384802199999999428e-02 -1.480167599999999972e-01 -1.704296499999999881e-01 -1.980563499999999852e-02 -1.574577500000000074e-01 -9.349142100000000510e-02 7.899030999999999414e-02
1.000000000000000000e+00 3.160303999999999891e-01 1.034526300000000010e+00 2.525610400000000144e+00 3.902709399999999995e+00 2.393445900000000126e+00 4.192086500000000160e-01 -1.003024799999999939e+00 -1.065101199999999970e+00 -3.308989800000000092e-01 -4.634751599999999971e-01 -6.866893800000000159e-01 -9.827403399999999900e-01 -4.118959999999999844e-01 -6.032345900000000150e-01 -1.030227400000000015e+00 -5.656315600000000332e-01 -1.003061100000000039e+00 -9.521086600000000510e-01 -9.568413599999999741e-01 -1.150828900000000043e+00 -1.242144600000000043e+00 -1.300642400000000087e+00 -1.265761600000000042e+00 -1.572446500000000080e+00 -1.490558599999999956e+00 -1.543671199999999910e+00 -1.749813400000000074e+00 -1.715500199999999920e+00 -1.782520700000000069e+00 -1.864731700000000103e+00 -1.721541999999999906e+00 -1.740974900000000103e+00 -1.698142000000000040e+00 -1.177428600000000047e+00 -1.098755300000000101e+00 -1.005565299999999995e+00 -3.932887899999999992e-01 -1.294579200000000041e-01 1.335280600000000040e-01 4.923723600000000089e-01 6.126452300000000406e-01 7.907896599999999498e-01 9.628574199999999639e-01 1.002482099999999932e+00 1.105110500000000107e+00 9.487892500000000284e-01 1.050968200000000019e+00 1.032425399999999938e+00 7.681766599999999556e-01 8.255321799999999488e-01 7.753051100000000195e-01 6.612737499999999935e-01 6.808739799999999898e-01 5.633033100000000015e-01 5.739926499999999931e-01 7.740243100000000487e-01 6.031320900000000096e-01 6.493293199999999876e-01 7.065253900000000309e-01 4.653086900000000248e-01 8.248868999999999785e-01 6.555418299999999920e-01 5.570952799999999705e-01 6.362161100000000014e-01 4.762645799999999929e-01 4.641905800000000193e-01 3.713339500000000237e-01 5.429794300000000407e-01 2.213627200000000128e-01 2.574379399999999762e-01 3.151301499999999978e-01 1.935608299999999893e-01 2.528821800000000120e-01 6.122690299999999919e-01 9.126007900000000506e-01 8.615259699999999743e-01 6.240227799999999991e-01 5.477931999999999801e-01 3.906277699999999853e-01 2.182528900000000049e-01 2.562480300000000155e-01 -4.380252000000000277e-03 -1.532370399999999910e-01 -7.897845700000000191e-02 -4.662602899999999939e-02 2.955513099999999924e-03 -5.097319599999999840e-02 -2.243438100000000046e-01 -1.424179999999999890e-01 -5.671862200000000326e-02 -1.168938800000000056e-01 -6.806691199999999331e-02 -3.642940699999999699e-02 -1.858128300000000122e-01 -1.590202099999999952e-01 5.714876099999999931e-02
1.000000000000000000e+00 3.642010400000000175e-02 1.833715100000000042e+00 3.117222500000000007e+00 1.812394300000000014e+00 1.286245000000000083e+00 -1.666440799999999861e-02 -9.231251799999999896e-01 6.748652900000000343e-02 3.785768199999999806e-01 8.044543600000000558e-03 -4.723896000000000345e-02 2.158111299999999899e-01 -4.912886499999999934e-01 -1.082222500000000087e+00 -8.633199299999999576e-01 -8.492083400000000060e-01 -1.109031899999999959e+00 -1.119051100000000076e+00 -9.935912799999999656e-01 -1.297530999999999990e+00 -1.246175899999999892e+00 -1.362589100000000109e+00 -1.586869499999999933e+00 -1.518184200000000095e+00 -1.648231100000000060e+00 -1.530850000000000044e+00 -1.640017800000000081e+00 -1.834681599999999912e+00 -1.987281000000000075e+00 -1.856860399999999967e+00 -1.777792000000000039e+00 -2.056277199999999805e+00 -1.847856900000000024e+00 -1.620728900000000028e+00 -1.642455999999999916e+00 -1.219563299999999906e+00 -7.328159400000000545e-01 -6.440008600000000083e-01 -4.245667200000000086e-01 1.761241600000000018e-01 2.644058400000000031e-01 3.734599499999999850e-01 8.622316199999999764e-01 7.225527899999999448e-01 9.357156199999999702e-01 1.056909899999999958e+00 1.026963099999999907e+00 9.510961900000000080e-01 8.328805200000000131e-01 1.065211799999999931e+00 1.016432299999999955e+00 6.576972399999999608e-01 5.582080900000000456e-01 9.572940699999999969e-01 9.003131599999999457e-01 6.747296000000000404e-01 8.998950999999999478e-01 6.942980899999999789e-01 1.185541299999999909e+00 7.010641600000000473e-01 6.900226799999999994e-01 8.058666399999999674e-01 7.201408000000000253e-01 6.708996999999999877e-01 5.014926199999999445e-01 8.241649699999999967e-01 4.616526200000000135e-01 6.955810500000000340e-01 5.881020799999999715e-01 2.911950700000000003e-01 4.837308200000000058e-01 2.804927600000000076e-01 3.906313000000000146e-01 7.225566399999999723e-01 8.660760699999999757e-01 8.864610000000000545e-01 6.776337199999999950e-01 4.882210599999999845e-01 4.483862299999999967e-01 3.276837699999999853e-01 1.696571099999999999e-01 2.436338100000000062e-01 7.731227799999999817e-02 -4.985622499999999707e-02 7.904275500000000620e-02 5.689792099999999714e-02 -7.180849899999999786e-02 1.336030699999999904e-01 -1.468551700000000071e-01 -2.866203299999999787e-01 7.010943499999999773e-02 -1.237691199999999964e-01 -1.228052599999999994e-01 -2.673172099999999995e-02 -1.416888099999999984e-01 2.001847699999999980e-02
1.000000000000000000e+00 9.432553999999999661e-01 1.445231900000000014e+00 2.129302099999999864e+00 2.295197100000000212e+00 1.565666900000000084e+00 9.727965600000000324e-01 3.310786499999999744e-01 -5.666629100000000058e-02 2.262264700000000128e-01 4.179738199999999959e-01 2.282997599999999905e-01 1.314879899999999990e-01 2.616226799999999963e-01 3.847647599999999835e-01 2.233338699999999899e-01 -1.772290199999999871e-01 -4.541819100000000220e-01 -5.553483399999999959e-01 -6.505113099999999537e-01 -6.649541399999999713e-01 -7.703597399999999595e-01 -8.631867100000000237e-01 -8.275006400000000095e-01 -1.035352400000000062e+00 -1.029310699999999912e+00 -8.647048699999999588e-01 -1.236428099999999919e+00 -1.466152799999999923e+00 -1.401650199999999957e+00 -1.563361699999999965e+00 -1.703068699999999991e+00 -1.813462600000000036e+00 -1.948755299999999968e+00 -2.019204999999999917e+00 -2.110512599999999850e+00 -2.098527499999999879e+00 -1.979193699999999945e+00 -1.965792500000000054e+00 -1.920926200000000028e+00 -1.689243700000000015e+00 -1.501934399999999892e+00 -1.379243199999999892e+00 -1.214599100000000043e+00 -1.015758399999999950e+00 -6.512394799999999817e-01 -3.581527899999999986e-01 -2.544117599999999868e-01 -9.811906099999999353e-02 -2.105774700000000166e-02 3.570066699999999843e-02 2.521934699999999752e-01 3.436181200000000269e-01 3.370486899999999841e-01 4.933978900000000056e-01 5.239689899999999678e-01 4.343583999999999778e-01 5.284080199999999783e-01 4.437960899999999764e-01 3.527190800000000181e-01 4.632258499999999946e-01 3.135141799999999757e-01 3.248795300000000275e-01 4.082894599999999929e-01 3.120901200000000264e-01 4.744974100000000083e-01 3.438020600000000204e-01 2.220442900000000053e-01 5.201487799999999773e-01 4.586909599999999809e-01 4.990351800000000226e-01 6.986805999999999850e-01 6.925340199999999724e-01 9.531727899999999920e-01 1.081941199999999936e+00 1.009279899999999897e+00 1.120967199999999941e+00 1.083061000000000051e+00 9.639323899999999723e-01 9.246812800000000498e-01 8.187618399999999630e-01 7.480143900000000290e-01 7.148265400000000103e-01 6.338293400000000188e-01 7.049150499999999875e-01 8.138492899999999475e-01 6.817896300000000354e-01 6.336014199999999708e-01 6.299215999999999704e-01 5.979552000000000200e-01 7.391714099999999732e-01 6.774921900000000496e-01 5.419994500000000492e-01 5.703181699999999577e-01 4.271340499999999873e-01 6.211983899999999892e-01 6.354086899999999982e-01
1.000000000000000000e+00 3.549253600000000231e-01 1.489071899999999893e+00 2.633311899999999817e+00 3.033822999999999936e+00 2.050527199999999883e+00 5.171413900000000341e-01 -1.285473099999999924e+00 -6.059473499999999957e-01 -1.219725799999999971e-01 -7.273314699999999799e-01 -1.790758299999999914e-01 -7.111010800000000520e-01 -4.355257499999999893e-01 -5.981612800000000174e-01 -1.214840399999999931e+00 -6.993994000000000044e-01 -1.010174399999999917e+00 -1.205263100000000032e+00 -9.953901600000000238e-01 -1.070436299999999896e+00 -1.225998399999999933e+00 -1.366187100000000099e+00 -1.390921499999999922e+00 -1.423480899999999938e+00 -1.455800599999999889e+00 -1.642490400000000017e+00 -1.642157199999999984e+00 -1.767555800000000010e+00 -1.991406699999999974e+00 -1.806766899999999954e+00 -1.707832000000000017e+00 -1.737549100000000069e+00 -1.665658099999999919e+00 -1.511276199999999958e+00 -1.231137099999999984e+00 -9.474283100000000513e-01 -4.414239899999999883e-01 -2.889964899999999948e-01 -1.182167999999999969e-01 5.203638699999999506e-01 5.941356599999999544e-01 7.838226900000000441e-01 1.083453100000000058e+00 1.145006200000000085e+00 1.247181899999999954e+00 1.206795300000000015e+00 1.112712700000000110e+00 1.135817000000000077e+00 1.195194400000000101e+00 9.571495199999999759e-01 8.360726899999999517e-01 9.738386100000000489e-01 8.084814399999999956e-01 7.167593799999999460e-01 7.168262100000000192e-01 7.138510399999999922e-01 7.231537900000000185e-01 6.663714499999999763e-01 6.897973699999999653e-01 6.871758799999999612e-01 6.614433299999999960e-01 6.060599399999999637e-01 4.724984600000000090e-01 6.612322000000000477e-01 5.423956199999999672e-01 3.091378399999999971e-01 5.703510899999999495e-01 5.493821100000000346e-01 3.335128299999999824e-01 1.905453500000000022e-01 3.081428600000000184e-01 2.885937299999999928e-01 2.255934099999999942e-01 3.185848000000000013e-01 7.788729100000000294e-01 8.472532000000000396e-01 6.013096100000000499e-01 5.521290300000000206e-01 3.748967200000000166e-01 3.214318199999999792e-01 1.412081400000000098e-01 -4.532707899999999929e-02 -3.803968399999999722e-02 -1.864658200000000043e-01 -1.903451800000000027e-01 -9.996817800000000476e-02 -5.363294500000000131e-02 -1.454569000000000001e-01 -1.383975199999999961e-01 -2.089323399999999942e-01 -2.536268199999999751e-01 -1.063620100000000068e-01 -1.411135400000000095e-01 -2.246235400000000104e-01 -1.749209399999999970e-01 -1.774744400000000111e-02
1.000000000000000000e+00 3.091872600000000193e-01 1.335613399999999951e+00 2.971357300000000201e+00 4.110566000000000386e+00 2.589951999999999810e+00 5.958826799999999979e-01 -9.085779699999999570e-01 -9.523639299999999697e-01 3.843341399999999908e-01 4.965304899999999910e-01 1.887617400000000112e-01 -1.809208400000000133e-02 -3.577849699999999938e-02 -4.378868300000000185e-02 -4.755829799999999885e-01 -5.945648399999999834e-01 -6.819857799999999859e-01 -8.005315499999999806e-01 -7.099472100000000507e-01 -1.134644500000000056e+00 -1.080936399999999908e+00 -9.087041700000000333e-01 -9.752419799999999528e-01 -1.394535099999999916e+00 -1.481359899999999952e+00 -8.521211499999999939e-01 -1.516052799999999978e+00 -1.955001900000000070e+00 -1.599716799999999939e+00 -1.509270700000000076e+00 -1.802520399999999912e+00 -1.552708299999999930e+00 -1.371299000000000046e+00 -1.637963999999999976e+00 -1.248611399999999927e+00 -7.594782799999999501e-01 -7.483692800000000256e-01 -3.948520699999999994e-01 -6.701751799999999815e-02 6.954473099999999852e-02 5.626671199999999651e-01 5.353358299999999570e-01 4.761025500000000132e-01 1.228768800000000105e+00 1.089492700000000092e+00 9.231512200000000501e-01 1.117366199999999976e+00 8.956955399999999567e-01 1.006218700000000021e+00 9.526529200000000142e-01 8.383522599999999603e-01 9.830511299999999952e-01 6.430810999999999611e-01 7.413243099999999863e-01 1.101962600000000014e+00 4.761355199999999788e-01 3.242224300000000059e-01 1.011538599999999954e+00 8.520550000000000068e-01 4.590543100000000210e-01 5.291294800000000409e-01 6.703092400000000284e-01 5.134809599999999863e-01 6.511467800000000361e-01 5.136427099999999468e-01 9.640988100000000283e-02 5.021607300000000551e-01 4.845579099999999806e-01 2.291529300000000047e-01 1.252175899999999897e-01 -6.701590999999999798e-02 1.514764999999999862e-01 2.029537899999999950e-01 2.986428199999999755e-01 7.296152299999999480e-01 4.128689199999999726e-01 3.308506199999999842e-01 6.863898099999999891e-01 4.943418499999999854e-02 1.763055099999999986e-01 -9.135762399999999839e-02 -6.511430499999999455e-01 9.825899400000000228e-02 -7.006451599999999891e-01 -1.852696299999999907e-01 -1.892622499999999930e-01 -7.419699899999999682e-01 -6.169174600000000286e-01 -5.167340299999999553e-01 -3.289621799999999929e-01 -4.211522999999999795e-01 -5.862933399999999962e-01 -9.537525799999999609e-01 -4.179900599999999966e-01 -2.287830600000000103e-01 -8.130953400000000553e-01
1.000000000000000000e+00 1.088088299999999897e+00 2.011948600000000198e+00 2.301733200000000146e+00 1.630199399999999965e+00 6.367680399999999796e-01 -1.405017400000000138e-01 5.479535100000000325e-01 1.075070600000000098e+00 8.968611100000000169e-01 1.137942800000000032e+00 1.046725499999999975e+00 3.901594700000000082e-01 -4.631771199999999977e-01 -5.164520700000000408e-01 -7.481724600000000391e-01 -8.701518499999999490e-01 -8.399299900000000152e-01 -9.720546899999999990e-01 -1.087207400000000046e+00 -1.066440800000000078e+00 -1.278173000000000004e+00 -1.391932200000000064e+00 -1.527655500000000055e+00 -1.722809599999999941e+00 -1.801990999999999898e+00 -2.109683899999999834e+00 -2.231005899999999986e+00 -2.357203999999999855e+00 -2.432271899999999931e+00 -2.444519399999999898e+00 -2.442006500000000191e+00 -2.176233199999999979e+00 -1.942049799999999937e+00 -1.663546200000000086e+00 -1.124192800000000103e+00 -7.966756499999999575e-01 -5.465583699999999601e-01 -1.402078800000000069e-01 1.457774799999999871e-01 2.879730899999999871e-01 3.769846900000000112e-01 5.360191300000000103e-01 6.751131200000000110e-01 6.061310699999999940e-01 5.565643300000000515e-01 6.299154099999999534e-01 5.454761900000000274e-01 5.144589800000000102e-01 5.119987200000000183e-01 5.343312399999999851e-01 5.686369799999999586e-01 5.746793999999999514e-01 6.408146300000000517e-01 6.131683700000000181e-01 6.848936799999999492e-01 6.789633000000000473e-01 5.732654099999999753e-01 6.290435800000000466e-01 6.709854400000000441e-01 6.130606100000000058e-01 5.240319300000000347e-01 6.020054900000000320e-01 5.479520900000000028e-01 4.990851700000000224e-01 4.737721200000000188e-01 4.446881500000000043e-01 5.152915799999999713e-01 3.836756000000000055e-01 4.050697300000000167e-01 3.925733699999999771e-01 3.853441200000000122e-01 3.598726999999999898e-01 5.332371900000000275e-01 6.440772700000000350e-01 7.606710199999999755e-01 6.606560400000000000e-01 4.344636199999999948e-01 3.998975799999999747e-01 3.193249300000000068e-01 2.336258800000000080e-01 1.426970899999999987e-01 1.747760700000000056e-01 1.342319100000000098e-01 5.588236399999999687e-02 1.414207399999999892e-01 1.733464600000000078e-01 1.252389100000000088e-01 7.134919700000000309e-02 1.381971899999999975e-01 1.163986099999999996e-01 1.311980399999999880e-01 1.194116800000000062e-01 8.296789200000000142e-02 1.513481799999999988e-01 2.739150599999999880e-01 3.494047399999999914e-01
1.000000000000000000e+00 4.251893800000000057e-01 1.418598800000000049e+00 2.668791300000000088e+00 3.298629000000000033e+00 2.264553900000000120e+00 1.651794900000000121e-01 -9.597265200000000274e-01 2.826683500000000127e-01 8.428504100000000498e-01 6.834582799999999736e-01 1.082087900000000102e+00 7.225769300000000062e-01 1.098113599999999968e-01 -6.966090700000000524e-01 -6.622678199999999515e-01 -8.399847499999999467e-01 -9.352973999999999455e-01 -8.953617200000000276e-01 -9.242660000000000320e-01 -1.088177399999999961e+00 -1.113584600000000036e+00 -1.130680700000000094e+00 -1.201894900000000099e+00 -1.539508899999999958e+00 -1.535227099999999956e+00 -1.468416699999999908e+00 -2.078011899999999912e+00 -1.856547399999999959e+00 -1.982868499999999923e+00 -2.041211500000000179e+00 -1.793860400000000022e+00 -1.986161999999999983e+00 -1.946902600000000039e+00 -1.706592700000000074e+00 -1.325141799999999925e+00 -1.147066300000000094e+00 -8.636285500000000503e-01 -3.560150999999999732e-01 -2.048896400000000118e-01 1.830100100000000007e-01 5.180450199999999672e-01 6.192908700000000488e-01 8.226008000000000209e-01 9.767791399999999902e-01 8.431312399999999485e-01 1.185863300000000065e+00 1.173672199999999943e+00 8.246436200000000216e-01 8.840406600000000337e-01 7.768104599999999804e-01 8.750334300000000010e-01 7.952891199999999605e-01 5.541665000000000063e-01 6.798986799999999775e-01 6.135512699999999819e-01 6.230897899999999767e-01 4.637117499999999781e-01 5.858780199999999994e-01 6.225864399999999632e-01 3.140325500000000214e-01 4.216761700000000168e-01 6.393917900000000154e-01 4.707558299999999862e-01 2.999823999999999824e-01 2.474465200000000031e-01 3.199572700000000158e-01 2.997678699999999918e-01 2.009253599999999973e-01 1.523684399999999939e-01 6.930684099999999404e-02 2.906263499999999778e-01 9.621696200000000310e-02 3.797150899999999774e-01 7.916312300000000191e-01 6.066616299999999518e-01 8.015437699999999888e-01 6.963128600000000334e-01 2.043886099999999983e-01 2.051220699999999897e-01 -4.515870200000000195e-02 -1.840168299999999924e-01 1.157747499999999957e-01 -9.813160099999999886e-02 -1.783598200000000022e-01 -1.071195399999999992e-01 -1.934913600000000011e-01 -1.819567000000000059e-02 -2.204930400000000013e-01 -1.525565100000000063e-01 -1.170106499999999938e-01 -1.451595900000000050e-01 -1.166683800000000021e-01 -1.992618399999999956e-01 -1.098368499999999998e-01 -1.424875300000000011e-01 9.875814099999999374e-02
1.000000000000000000e+00 8.560685899999999349e-02 2.003301799999999966e-01 4.425495899999999927e-01 -7.411072800000000071e-02 -3.987326299999999768e-01 -7.450180699999999767e-01 -9.418949599999999478e-01 -9.175600900000000504e-01 -8.739917600000000064e-01 -9.341951299999999847e-01 -1.073225799999999897e+00 -1.176308300000000084e+00 -1.582368999999999915e+00 -1.144553399999999943e+00 -1.334494300000000022e+00 -1.994730300000000067e+00 -1.405144799999999972e+00 -1.469855200000000028e+00 -2.401157099999999822e+00 -1.793065499999999979e+00 -2.117163199999999801e+00 -2.509492299999999787e+00 -2.143652799999999914e+00 -2.320244100000000032e+00 -1.964117200000000008e+00 -1.818439600000000045e+00 -1.576979099999999967e+00 -1.294312099999999965e+00 -9.695515999999999579e-01 -3.561946400000000068e-01 2.339692999999999981e-02 -2.083020399999999939e-01 4.568055699999999664e-02 2.993412599999999979e-01 2.869193899999999964e-01 8.514207599999999987e-01 3.363184399999999963e-01 8.054080800000000540e-02 5.028164499999999704e-01 2.361449999999999938e-01 4.805622299999999791e-01 2.141472600000000059e-01 5.135513299999999726e-01 7.407658499999999480e-01 2.894599600000000161e-01 3.992851900000000120e-01 5.122809900000000471e-01 5.499342299999999684e-01 5.480861299999999492e-01 6.447587700000000366e-01 6.761686099999999477e-01 6.303502399999999506e-01 6.193041599999999924e-01 5.264462100000000255e-01 6.107471199999999767e-01 4.535827599999999737e-01 7.355106500000000436e-01 4.440976699999999999e-01 4.594875900000000013e-01 5.165286100000000546e-01 4.543281200000000020e-01 4.345632300000000225e-01 3.229089099999999934e-01 5.919140899999999483e-01 4.844014899999999901e-01 3.414844200000000107e-01 6.335106799999999927e-01 7.436027899999999580e-01 7.717139699999999713e-01 7.803965299999999772e-01 6.443654399999999560e-01 4.966343100000000232e-01 5.791209099999999887e-01 3.313175099999999818e-01 3.413505000000000011e-01 2.992463399999999996e-01 4.262316800000000017e-01 4.295708400000000093e-01 2.342645399999999933e-01 4.254790999999999990e-01 2.697405500000000234e-01 3.660592699999999922e-01 4.177041300000000068e-01 4.059931199999999851e-01 3.722323200000000054e-01 4.001087300000000235e-01 4.437177500000000219e-01 5.898639799999999545e-01 6.568424499999999666e-01 1.059839100000000034e+00 2.173486399999999819e+00 2.361970799999999926e+00 2.096383599999999792e+00 1.271345299999999900e+00 3.371365900000000138e-01 5.939047400000000421e-01
